      f (GHz),                  E_elec,                   E_mag,                   E_cap,                   E_ind
 2.000000e+00,        +1.812633377e+00,        +6.717924829e-01,        +0.000000000e+00,        +0.000000000e+00
 2.100000e+00,        +1.794850811e+00,        +6.756574751e-01,        +0.000000000e+00,        +0.000000000e+00
 2.200000e+00,        +1.776623362e+00,        +6.796557527e-01,        +0.000000000e+00,        +0.000000000e+00
 2.300000e+00,        +1.757996155e+00,        +6.837814233e-01,        +0.000000000e+00,        +0.000000000e+00
 2.400000e+00,        +1.739013757e+00,        +6.880286905e-01,        +0.000000000e+00,        +0.000000000e+00
 2.500000e+00,        +1.719720010e+00,        +6.923918763e-01,        +0.000000000e+00,        +0.000000000e+00
 2.600000e+00,        +1.700157867e+00,        +6.968654429e-01,        +0.000000000e+00,        +0.000000000e+00
 2.700000e+00,        +1.680369261e+00,        +7.014440111e-01,        +0.000000000e+00,        +0.000000000e+00
 2.800000e+00,        +1.660394980e+00,        +7.061223781e-01,        +0.000000000e+00,        +0.000000000e+00
 2.900000e+00,        +1.640274558e+00,        +7.108955321e-01,        +0.000000000e+00,        +0.000000000e+00
 3.000000e+00,        +1.620046192e+00,        +7.157586652e-01,        +0.000000000e+00,        +0.000000000e+00
 3.100000e+00,        +1.599746664e+00,        +7.207071844e-01,        +0.000000000e+00,        +0.000000000e+00
 3.200000e+00,        +1.579411285e+00,        +7.257367204e-01,        +0.000000000e+00,        +0.000000000e+00
 3.300000e+00,        +1.559073850e+00,        +7.308431337e-01,        +0.000000000e+00,        +0.000000000e+00
 3.400000e+00,        +1.538766608e+00,        +7.360225201e-01,        +0.000000000e+00,        +0.000000000e+00
 3.500000e+00,        +1.518520241e+00,        +7.412712129e-01,        +0.000000000e+00,        +0.000000000e+00
 3.600000e+00,        +1.498363862e+00,        +7.465857848e-01,        +0.000000000e+00,        +0.000000000e+00
 3.700000e+00,        +1.478325011e+00,        +7.519630472e-01,        +0.000000000e+00,        +0.000000000e+00
 3.800000e+00,        +1.458429674e+00,        +7.574000488e-01,        +0.000000000e+00,        +0.000000000e+00
 3.900000e+00,        +1.438702297e+00,        +7.628940725e-01,        +0.000000000e+00,        +0.000000000e+00
 4.000000e+00,        +1.419165820e+00,        +7.684426311e-01,        +0.000000000e+00,        +0.000000000e+00
 4.100000e+00,        +1.399841709e+00,        +7.740434625e-01,        +0.000000000e+00,        +0.000000000e+00
 4.200000e+00,        +1.380749996e+00,        +7.796945235e-01,        +0.000000000e+00,        +0.000000000e+00
 4.300000e+00,        +1.361909322e+00,        +7.853939832e-01,        +0.000000000e+00,        +0.000000000e+00
 4.400000e+00,        +1.343336988e+00,        +7.911402154e-01,        +0.000000000e+00,        +0.000000000e+00
 4.500000e+00,        +1.325049006e+00,        +7.969317907e-01,        +0.000000000e+00,        +0.000000000e+00
 4.600000e+00,        +1.307060151e+00,        +8.027674683e-01,        +0.000000000e+00,        +0.000000000e+00
 4.700000e+00,        +1.289384020e+00,        +8.086461868e-01,        +0.000000000e+00,        +0.000000000e+00
 4.800000e+00,        +1.272033086e+00,        +8.145670558e-01,        +0.000000000e+00,        +0.000000000e+00
 4.900000e+00,        +1.255018756e+00,        +8.205293460e-01,        +0.000000000e+00,        +0.000000000e+00
 5.000000e+00,        +1.238351433e+00,        +8.265324802e-01,        +0.000000000e+00,        +0.000000000e+00
 5.100000e+00,        +1.222040565e+00,        +8.325760235e-01,        +0.000000000e+00,        +0.000000000e+00
 5.200000e+00,        +1.206094712e+00,        +8.386596740e-01,        +0.000000000e+00,        +0.000000000e+00
 5.300000e+00,        +1.190521595e+00,        +8.447832533e-01,        +0.000000000e+00,        +0.000000000e+00
 5.400000e+00,        +1.175328154e+00,        +8.509466965e-01,        +0.000000000e+00,        +0.000000000e+00
 5.500000e+00,        +1.160520602e+00,        +8.571500430e-01,        +0.000000000e+00,        +0.000000000e+00
 5.600000e+00,        +1.146104474e+00,        +8.633934270e-01,        +0.000000000e+00,        +0.000000000e+00
 5.700000e+00,        +1.132084682e+00,        +8.696770683e-01,        +0.000000000e+00,        +0.000000000e+00
 5.800000e+00,        +1.118465559e+00,        +8.760012623e-01,        +0.000000000e+00,        +0.000000000e+00
 5.900000e+00,        +1.105250909e+00,        +8.823663716e-01,        +0.000000000e+00,        +0.000000000e+00
 6.000000e+00,        +1.092444047e+00,        +8.887728165e-01,        +0.000000000e+00,        +0.000000000e+00
 6.100000e+00,        +1.080047846e+00,        +8.952210656e-01,        +0.000000000e+00,        +0.000000000e+00
 6.200000e+00,        +1.068064774e+00,        +9.017116273e-01,        +0.000000000e+00,        +0.000000000e+00
 6.300000e+00,        +1.056496933e+00,        +9.082450406e-01,        +0.000000000e+00,        +0.000000000e+00
 6.400000e+00,        +1.045346094e+00,        +9.148218662e-01,        +0.000000000e+00,        +0.000000000e+00
 6.500000e+00,        +1.034613731e+00,        +9.214426776e-01,        +0.000000000e+00,        +0.000000000e+00
 6.600000e+00,        +1.024301053e+00,        +9.281080522e-01,        +0.000000000e+00,        +0.000000000e+00
 6.700000e+00,        +1.014409032e+00,        +9.348185624e-01,        +0.000000000e+00,        +0.000000000e+00
 6.800000e+00,        +1.004938430e+00,        +9.415747669e-01,        +0.000000000e+00,        +0.000000000e+00
 6.900000e+00,        +9.958898233e-01,        +9.483772014e-01,        +0.000000000e+00,        +0.000000000e+00
 7.000000e+00,        +9.872636288e-01,        +9.552263696e-01,        +0.000000000e+00,        +0.000000000e+00
 7.100000e+00,        +9.790601204e-01,        +9.621227342e-01,        +0.000000000e+00,        +0.000000000e+00
 7.200000e+00,        +9.712794499e-01,        +9.690667075e-01,        +0.000000000e+00,        +0.000000000e+00
 7.300000e+00,        +9.639216636e-01,        +9.760586421e-01,        +0.000000000e+00,        +0.000000000e+00
 7.400000e+00,        +9.569867171e-01,        +9.830988210e-01,        +0.000000000e+00,        +0.000000000e+00
 7.500000e+00,        +9.504744879e-01,        +9.901874481e-01,        +0.000000000e+00,        +0.000000000e+00
 7.600000e+00,        +9.443847865e-01,        +9.973246381e-01,        +0.000000000e+00,        +0.000000000e+00
 7.700000e+00,        +9.387173659e-01,        +1.004510406e+00,        +0.000000000e+00,        +0.000000000e+00
 7.800000e+00,        +9.334719284e-01,        +1.011744658e+00,        +0.000000000e+00,        +0.000000000e+00
 7.900000e+00,        +9.286481313e-01,        +1.019027177e+00,        +0.000000000e+00,        +0.000000000e+00
 8.000000e+00,        +9.242455905e-01,        +1.026357617e+00,        +0.000000000e+00,        +0.000000000e+00
 8.100000e+00,        +9.202638823e-01,        +1.033735486e+00,        +0.000000000e+00,        +0.000000000e+00
 8.200000e+00,        +9.167025436e-01,        +1.041160140e+00,        +0.000000000e+00,        +0.000000000e+00
 8.300000e+00,        +9.135610699e-01,        +1.048630766e+00,        +0.000000000e+00,        +0.000000000e+00
 8.400000e+00,        +9.108389116e-01,        +1.056146372e+00,        +0.000000000e+00,        +0.000000000e+00
 8.500000e+00,        +9.085354691e-01,        +1.063705774e+00,        +0.000000000e+00,        +0.000000000e+00
 8.600000e+00,        +9.066500854e-01,        +1.071307583e+00,        +0.000000000e+00,        +0.000000000e+00
 8.700000e+00,        +9.051820367e-01,        +1.078950193e+00,        +0.000000000e+00,        +0.000000000e+00
 8.800000e+00,        +9.041305221e-01,        +1.086631763e+00,        +0.000000000e+00,        +0.000000000e+00
 8.900000e+00,        +9.034946509e-01,        +1.094350208e+00,        +0.000000000e+00,        +0.000000000e+00
 9.000000e+00,        +9.032734277e-01,        +1.102103182e+00,        +0.000000000e+00,        +0.000000000e+00
 9.100000e+00,        +9.034657363e-01,        +1.109888065e+00,        +0.000000000e+00,        +0.000000000e+00
 9.200000e+00,        +9.040703212e-01,        +1.117701948e+00,        +0.000000000e+00,        +0.000000000e+00
 9.300000e+00,        +9.050857680e-01,        +1.125541616e+00,        +0.000000000e+00,        +0.000000000e+00
 9.400000e+00,        +9.065104808e-01,        +1.133403536e+00,        +0.000000000e+00,        +0.000000000e+00
 9.500000e+00,        +9.083426587e-01,        +1.141283842e+00,        +0.000000000e+00,        +0.000000000e+00
 9.600000e+00,        +9.105802701e-01,        +1.149178319e+00,        +0.000000000e+00,        +0.000000000e+00
 9.700000e+00,        +9.132210250e-01,        +1.157082388e+00,        +0.000000000e+00,        +0.000000000e+00
 9.800000e+00,        +9.162623458e-01,        +1.164991093e+00,        +0.000000000e+00,        +0.000000000e+00
 9.900000e+00,        +9.197013363e-01,        +1.172899089e+00,        +0.000000000e+00,        +0.000000000e+00
 1.000000e+01,        +9.235347491e-01,        +1.180800623e+00,        +0.000000000e+00,        +0.000000000e+00
 1.010000e+01,        +9.277589510e-01,        +1.188689526e+00,        +0.000000000e+00,        +0.000000000e+00
 1.020000e+01,        +9.323698875e-01,        +1.196559202e+00,        +0.000000000e+00,        +0.000000000e+00
 1.030000e+01,        +9.373630456e-01,        +1.204402611e+00,        +0.000000000e+00,        +0.000000000e+00
 1.040000e+01,        +9.427334156e-01,        +1.212212270e+00,        +0.000000000e+00,        +0.000000000e+00
 1.050000e+01,        +9.484754517e-01,        +1.219980233e+00,        +0.000000000e+00,        +0.000000000e+00
 1.060000e+01,        +9.545830320e-01,        +1.227698094e+00,        +0.000000000e+00,        +0.000000000e+00
 1.070000e+01,        +9.610494177e-01,        +1.235356979e+00,        +0.000000000e+00,        +0.000000000e+00
 1.080000e+01,        +9.678672125e-01,        +1.242947544e+00,        +0.000000000e+00,        +0.000000000e+00
 1.090000e+01,        +9.750283212e-01,        +1.250459974e+00,        +0.000000000e+00,        +0.000000000e+00
 1.100000e+01,        +9.825239099e-01,        +1.257883990e+00,        +0.000000000e+00,        +0.000000000e+00
 1.110000e+01,        +9.903443658e-01,        +1.265208850e+00,        +0.000000000e+00,        +0.000000000e+00
 1.120000e+01,        +9.984792591e-01,        +1.272423362e+00,        +0.000000000e+00,        +0.000000000e+00
 1.130000e+01,        +1.006917306e+00,        +1.279515896e+00,        +0.000000000e+00,        +0.000000000e+00
 1.140000e+01,        +1.015646335e+00,        +1.286474400e+00,        +0.000000000e+00,        +0.000000000e+00
 1.150000e+01,        +1.024653252e+00,        +1.293286421e+00,        +0.000000000e+00,        +0.000000000e+00
 1.160000e+01,        +1.033924019e+00,        +1.299939129e+00,        +0.000000000e+00,        +0.000000000e+00
 1.170000e+01,        +1.043443620e+00,        +1.306419351e+00,        +0.000000000e+00,        +0.000000000e+00
 1.180000e+01,        +1.053196048e+00,        +1.312713600e+00,        +0.000000000e+00,        +0.000000000e+00
 1.190000e+01,        +1.063164289e+00,        +1.318808118e+00,        +0.000000000e+00,        +0.000000000e+00
 1.200000e+01,        +1.073330312e+00,        +1.324688921e+00,        +0.000000000e+00,        +0.000000000e+00
 1.210000e+01,        +1.083675066e+00,        +1.330341846e+00,        +0.000000000e+00,        +0.000000000e+00
 1.220000e+01,        +1.094178487e+00,        +1.335752608e+00,        +0.000000000e+00,        +0.000000000e+00
 1.230000e+01,        +1.104819508e+00,        +1.340906859e+00,        +0.000000000e+00,        +0.000000000e+00
 1.240000e+01,        +1.115576083e+00,        +1.345790255e+00,        +0.000000000e+00,        +0.000000000e+00
 1.250000e+01,        +1.126425213e+00,        +1.350388524e+00,        +0.000000000e+00,        +0.000000000e+00
 1.260000e+01,        +1.137342991e+00,        +1.354687540e+00,        +0.000000000e+00,        +0.000000000e+00
 1.270000e+01,        +1.148304644e+00,        +1.358673404e+00,        +0.000000000e+00,        +0.000000000e+00
 1.280000e+01,        +1.159284597e+00,        +1.362332526e+00,        +0.000000000e+00,        +0.000000000e+00
 1.290000e+01,        +1.170256541e+00,        +1.365651708e+00,        +0.000000000e+00,        +0.000000000e+00
 1.300000e+01,        +1.181193512e+00,        +1.368618235e+00,        +0.000000000e+00,        +0.000000000e+00
 1.310000e+01,        +1.192067982e+00,        +1.371219966e+00,        +0.000000000e+00,        +0.000000000e+00
 1.320000e+01,        +1.202851959e+00,        +1.373445421e+00,        +0.000000000e+00,        +0.000000000e+00
 1.330000e+01,        +1.213517096e+00,        +1.375283878e+00,        +0.000000000e+00,        +0.000000000e+00
 1.340000e+01,        +1.224034810e+00,        +1.376725461e+00,        +0.000000000e+00,        +0.000000000e+00
 1.350000e+01,        +1.234376413e+00,        +1.377761229e+00,        +0.000000000e+00,        +0.000000000e+00
 1.360000e+01,        +1.244513243e+00,        +1.378383263e+00,        +0.000000000e+00,        +0.000000000e+00
 1.370000e+01,        +1.254416808e+00,        +1.378584752e+00,        +0.000000000e+00,        +0.000000000e+00
 1.380000e+01,        +1.264058936e+00,        +1.378360068e+00,        +0.000000000e+00,        +0.000000000e+00
 1.390000e+01,        +1.273411924e+00,        +1.377704840e+00,        +0.000000000e+00,        +0.000000000e+00
 1.400000e+01,        +1.282448697e+00,        +1.376616021e+00,        +0.000000000e+00,        +0.000000000e+00
 1.410000e+01,        +1.291142961e+00,        +1.375091945e+00,        +0.000000000e+00,        +0.000000000e+00
 1.420000e+01,        +1.299469363e+00,        +1.373132379e+00,        +0.000000000e+00,        +0.000000000e+00
 1.430000e+01,        +1.307403643e+00,        +1.370738562e+00,        +0.000000000e+00,        +0.000000000e+00
 1.440000e+01,        +1.314922790e+00,        +1.367913236e+00,        +0.000000000e+00,        +0.000000000e+00
 1.450000e+01,        +1.322005183e+00,        +1.364660666e+00,        +0.000000000e+00,        +0.000000000e+00
 1.460000e+01,        +1.328630730e+00,        +1.360986650e+00,        +0.000000000e+00,        +0.000000000e+00
 1.470000e+01,        +1.334781002e+00,        +1.356898511e+00,        +0.000000000e+00,        +0.000000000e+00
 1.480000e+01,        +1.340439348e+00,        +1.352405087e+00,        +0.000000000e+00,        +0.000000000e+00
 1.490000e+01,        +1.345591002e+00,        +1.347516699e+00,        +0.000000000e+00,        +0.000000000e+00
 1.500000e+01,        +1.350223176e+00,        +1.342245112e+00,        +0.000000000e+00,        +0.000000000e+00
 1.510000e+01,        +1.354325135e+00,        +1.336603484e+00,        +0.000000000e+00,        +0.000000000e+00
 1.520000e+01,        +1.357888260e+00,        +1.330606297e+00,        +0.000000000e+00,        +0.000000000e+00
 1.530000e+01,        +1.360906085e+00,        +1.324269283e+00,        +0.000000000e+00,        +0.000000000e+00
 1.540000e+01,        +1.363374324e+00,        +1.317609335e+00,        +0.000000000e+00,        +0.000000000e+00
 1.550000e+01,        +1.365290872e+00,        +1.310644411e+00,        +0.000000000e+00,        +0.000000000e+00
 1.560000e+01,        +1.366655791e+00,        +1.303393423e+00,        +0.000000000e+00,        +0.000000000e+00
 1.570000e+01,        +1.367471278e+00,        +1.295876127e+00,        +0.000000000e+00,        +0.000000000e+00
 1.580000e+01,        +1.367741608e+00,        +1.288113000e+00,        +0.000000000e+00,        +0.000000000e+00
 1.590000e+01,        +1.367473065e+00,        +1.280125112e+00,        +0.000000000e+00,        +0.000000000e+00
 1.600000e+01,        +1.366673861e+00,        +1.271934001e+00,        +0.000000000e+00,        +0.000000000e+00
 1.610000e+01,        +1.365354031e+00,        +1.263561543e+00,        +0.000000000e+00,        +0.000000000e+00
 1.620000e+01,        +1.363525324e+00,        +1.255029822e+00,        +0.000000000e+00,        +0.000000000e+00
 1.630000e+01,        +1.361201081e+00,        +1.246361008e+00,        +0.000000000e+00,        +0.000000000e+00
 1.640000e+01,        +1.358396105e+00,        +1.237577229e+00,        +0.000000000e+00,        +0.000000000e+00
 1.650000e+01,        +1.355126523e+00,        +1.228700464e+00,        +0.000000000e+00,        +0.000000000e+00
 1.660000e+01,        +1.351409653e+00,        +1.219752428e+00,        +0.000000000e+00,        +0.000000000e+00
 1.670000e+01,        +1.347263855e+00,        +1.210754472e+00,        +0.000000000e+00,        +0.000000000e+00
 1.680000e+01,        +1.342708400e+00,        +1.201727498e+00,        +0.000000000e+00,        +0.000000000e+00
 1.690000e+01,        +1.337763323e+00,        +1.192691866e+00,        +0.000000000e+00,        +0.000000000e+00
 1.700000e+01,        +1.332449292e+00,        +1.183667333e+00,        +0.000000000e+00,        +0.000000000e+00
 1.710000e+01,        +1.326787477e+00,        +1.174672980e+00,        +0.000000000e+00,        +0.000000000e+00
 1.720000e+01,        +1.320799424e+00,        +1.165727167e+00,        +0.000000000e+00,        +0.000000000e+00
 1.730000e+01,        +1.314506936e+00,        +1.156847481e+00,        +0.000000000e+00,        +0.000000000e+00
 1.740000e+01,        +1.307931960e+00,        +1.148050710e+00,        +0.000000000e+00,        +0.000000000e+00
 1.750000e+01,        +1.301096486e+00,        +1.139352808e+00,        +0.000000000e+00,        +0.000000000e+00
 1.760000e+01,        +1.294022444e+00,        +1.130768882e+00,        +0.000000000e+00,        +0.000000000e+00
 1.770000e+01,        +1.286731621e+00,        +1.122313180e+00,        +0.000000000e+00,        +0.000000000e+00
 1.780000e+01,        +1.279245576e+00,        +1.113999084e+00,        +0.000000000e+00,        +0.000000000e+00
 1.790000e+01,        +1.271585567e+00,        +1.105839114e+00,        +0.000000000e+00,        +0.000000000e+00
 1.800000e+01,        +1.263772485e+00,        +1.097844935e+00,        +0.000000000e+00,        +0.000000000e+00
 1.810000e+01,        +1.255826801e+00,        +1.090027369e+00,        +0.000000000e+00,        +0.000000000e+00
 1.820000e+01,        +1.247768509e+00,        +1.082396412e+00,        +0.000000000e+00,        +0.000000000e+00
 1.830000e+01,        +1.239617085e+00,        +1.074961253e+00,        +0.000000000e+00,        +0.000000000e+00
 1.840000e+01,        +1.231391453e+00,        +1.067730298e+00,        +0.000000000e+00,        +0.000000000e+00
 1.850000e+01,        +1.223109952e+00,        +1.060711199e+00,        +0.000000000e+00,        +0.000000000e+00
 1.860000e+01,        +1.214790313e+00,        +1.053910876e+00,        +0.000000000e+00,        +0.000000000e+00
 1.870000e+01,        +1.206449640e+00,        +1.047335556e+00,        +0.000000000e+00,        +0.000000000e+00
 1.880000e+01,        +1.198104401e+00,        +1.040990795e+00,        +0.000000000e+00,        +0.000000000e+00
 1.890000e+01,        +1.189770415e+00,        +1.034881520e+00,        +0.000000000e+00,        +0.000000000e+00
 1.900000e+01,        +1.181462849e+00,        +1.029012055e+00,        +0.000000000e+00,        +0.000000000e+00
 1.910000e+01,        +1.173196224e+00,        +1.023386157e+00,        +0.000000000e+00,        +0.000000000e+00
 1.920000e+01,        +1.164984412e+00,        +1.018007052e+00,        +0.000000000e+00,        +0.000000000e+00
 1.930000e+01,        +1.156840648e+00,        +1.012877464e+00,        +0.000000000e+00,        +0.000000000e+00
