         f (GHz),              E_elec (J),               E_mag (J),               E_cap (J),               E_ind (J),           E_elec[1] (J),               p_elec[1],            E_mag[1] (J),                p_mag[1]
 2.000000000e+00,        +1.761180529e-02,        +1.622212862e-02,        +0.000000000e+00,        +0.000000000e+00,        +1.600727753e-02,        +9.088947592e-01,        +8.107512314e-03,        +4.997810402e-01
 2.100000000e+00,        +1.760382456e-02,        +1.622897083e-02,        +0.000000000e+00,        +0.000000000e+00,        +1.600002280e-02,        +9.088946977e-01,        +8.110952739e-03,        +4.997823228e-01
 2.200000000e+00,        +1.759550757e-02,        +1.623610653e-02,        +0.000000000e+00,        +0.000000000e+00,        +1.599246249e-02,        +9.088946385e-01,        +8.114540656e-03,        +4.997836545e-01
 2.300000000e+00,        +1.758686153e-02,        +1.624353014e-02,        +0.000000000e+00,        +0.000000000e+00,        +1.598460316e-02,        +9.088945824e-01,        +8.118273251e-03,        +4.997850333e-01
 2.400000000e+00,        +1.757789394e-02,        +1.625123585e-02,        +0.000000000e+00,        +0.000000000e+00,        +1.597645165e-02,        +9.088945300e-01,        +8.122147592e-03,        +4.997864574e-01
 2.500000000e+00,        +1.756861258e-02,        +1.625921764e-02,        +0.000000000e+00,        +0.000000000e+00,        +1.596801503e-02,        +9.088944821e-01,        +8.126160645e-03,        +4.997879249e-01
 2.600000000e+00,        +1.755902547e-02,        +1.626746929e-02,        +0.000000000e+00,        +0.000000000e+00,        +1.595930061e-02,        +9.088944397e-01,        +8.130309265e-03,        +4.997894336e-01
 2.700000000e+00,        +1.754914091e-02,        +1.627598437e-02,        +0.000000000e+00,        +0.000000000e+00,        +1.595031595e-02,        +9.088944034e-01,        +8.134590207e-03,        +4.997909816e-01
 2.800000000e+00,        +1.753896744e-02,        +1.628475625e-02,        +0.000000000e+00,        +0.000000000e+00,        +1.594106884e-02,        +9.088943743e-01,        +8.139000125e-03,        +4.997925668e-01
 2.900000000e+00,        +1.752851385e-02,        +1.629377809e-02,        +0.000000000e+00,        +0.000000000e+00,        +1.593156726e-02,        +9.088943531e-01,        +8.143535574e-03,        +4.997941870e-01
 3.000000000e+00,        +1.751778918e-02,        +1.630304289e-02,        +0.000000000e+00,        +0.000000000e+00,        +1.592181944e-02,        +9.088943408e-01,        +8.148193016e-03,        +4.997958400e-01
 3.100000000e+00,        +1.750680265e-02,        +1.631254345e-02,        +0.000000000e+00,        +0.000000000e+00,        +1.591183381e-02,        +9.088943383e-01,        +8.152968821e-03,        +4.997975236e-01
 3.200000000e+00,        +1.749556374e-02,        +1.632227241e-02,        +0.000000000e+00,        +0.000000000e+00,        +1.590161897e-02,        +9.088943465e-01,        +8.157859271e-03,        +4.997992355e-01
 3.300000000e+00,        +1.748408213e-02,        +1.633222222e-02,        +0.000000000e+00,        +0.000000000e+00,        +1.589118375e-02,        +9.088943665e-01,        +8.162860563e-03,        +4.998009733e-01
 3.400000000e+00,        +1.747236768e-02,        +1.634238519e-02,        +0.000000000e+00,        +0.000000000e+00,        +1.588053712e-02,        +9.088943992e-01,        +8.167968813e-03,        +4.998027349e-01
 3.500000000e+00,        +1.746043045e-02,        +1.635275346e-02,        +0.000000000e+00,        +0.000000000e+00,        +1.586968826e-02,        +9.088944457e-01,        +8.173180059e-03,        +4.998045177e-01
 3.600000000e+00,        +1.744828070e-02,        +1.636331904e-02,        +0.000000000e+00,        +0.000000000e+00,        +1.585864649e-02,        +9.088945069e-01,        +8.178490263e-03,        +4.998063195e-01
 3.700000000e+00,        +1.743592884e-02,        +1.637407376e-02,        +0.000000000e+00,        +0.000000000e+00,        +1.584742128e-02,        +9.088945839e-01,        +8.183895317e-03,        +4.998081378e-01
 3.800000000e+00,        +1.742338543e-02,        +1.638500937e-02,        +0.000000000e+00,        +0.000000000e+00,        +1.583602228e-02,        +9.088946778e-01,        +8.189391044e-03,        +4.998099702e-01
 3.900000000e+00,        +1.741066120e-02,        +1.639611744e-02,        +0.000000000e+00,        +0.000000000e+00,        +1.582445925e-02,        +9.088947897e-01,        +8.194973204e-03,        +4.998118143e-01
 4.000000000e+00,        +1.739776703e-02,        +1.640738945e-02,        +0.000000000e+00,        +0.000000000e+00,        +1.581274208e-02,        +9.088949205e-01,        +8.200637497e-03,        +4.998136676e-01
 4.100000000e+00,        +1.738471390e-02,        +1.641881676e-02,        +0.000000000e+00,        +0.000000000e+00,        +1.580088078e-02,        +9.088950714e-01,        +8.206379566e-03,        +4.998155277e-01
 4.200000000e+00,        +1.737151293e-02,        +1.643039064e-02,        +0.000000000e+00,        +0.000000000e+00,        +1.578888548e-02,        +9.088952435e-01,        +8.212195001e-03,        +4.998173922e-01
 4.300000000e+00,        +1.735817535e-02,        +1.644210222e-02,        +0.000000000e+00,        +0.000000000e+00,        +1.577676639e-02,        +9.088954379e-01,        +8.218079342e-03,        +4.998192586e-01
 4.400000000e+00,        +1.734471249e-02,        +1.645394259e-02,        +0.000000000e+00,        +0.000000000e+00,        +1.576453383e-02,        +9.088956557e-01,        +8.224028086e-03,        +4.998211245e-01
 4.500000000e+00,        +1.733113576e-02,        +1.646590272e-02,        +0.000000000e+00,        +0.000000000e+00,        +1.575219820e-02,        +9.088958980e-01,        +8.230036688e-03,        +4.998229874e-01
 4.600000000e+00,        +1.731745664e-02,        +1.647797353e-02,        +0.000000000e+00,        +0.000000000e+00,        +1.573976994e-02,        +9.088961659e-01,        +8.236100565e-03,        +4.998248449e-01
 4.700000000e+00,        +1.730368670e-02,        +1.649014586e-02,        +0.000000000e+00,        +0.000000000e+00,        +1.572725960e-02,        +9.088964606e-01,        +8.242215102e-03,        +4.998266947e-01
 4.800000000e+00,        +1.728983755e-02,        +1.650241050e-02,        +0.000000000e+00,        +0.000000000e+00,        +1.571467773e-02,        +9.088967831e-01,        +8.248375652e-03,        +4.998285344e-01
 4.900000000e+00,        +1.727592085e-02,        +1.651475817e-02,        +0.000000000e+00,        +0.000000000e+00,        +1.570203496e-02,        +9.088971346e-01,        +8.254577547e-03,        +4.998303615e-01
 5.000000000e+00,        +1.726194830e-02,        +1.652717957e-02,        +0.000000000e+00,        +0.000000000e+00,        +1.568934193e-02,        +9.088975162e-01,        +8.260816093e-03,        +4.998321739e-01
 5.100000000e+00,        +1.724793161e-02,        +1.653966535e-02,        +0.000000000e+00,        +0.000000000e+00,        +1.567660932e-02,        +9.088979289e-01,        +8.267086581e-03,        +4.998339691e-01
 5.200000000e+00,        +1.723388251e-02,        +1.655220615e-02,        +0.000000000e+00,        +0.000000000e+00,        +1.566384779e-02,        +9.088983739e-01,        +8.273384291e-03,        +4.998357449e-01
 5.300000000e+00,        +1.721981273e-02,        +1.656479257e-02,        +0.000000000e+00,        +0.000000000e+00,        +1.565106802e-02,        +9.088988522e-01,        +8.279704489e-03,        +4.998374991e-01
 5.400000000e+00,        +1.720573398e-02,        +1.657741520e-02,        +0.000000000e+00,        +0.000000000e+00,        +1.563828069e-02,        +9.088993650e-01,        +8.286042441e-03,        +4.998392294e-01
 5.500000000e+00,        +1.719165798e-02,        +1.659006465e-02,        +0.000000000e+00,        +0.000000000e+00,        +1.562549645e-02,        +9.088999132e-01,        +8.292393407e-03,        +4.998409338e-01
 5.600000000e+00,        +1.717759638e-02,        +1.660273152e-02,        +0.000000000e+00,        +0.000000000e+00,        +1.561272591e-02,        +9.089004979e-01,        +8.298752656e-03,        +4.998426100e-01
 5.700000000e+00,        +1.716356082e-02,        +1.661540641e-02,        +0.000000000e+00,        +0.000000000e+00,        +1.559997965e-02,        +9.089011202e-01,        +8.305115458e-03,        +4.998442561e-01
 5.800000000e+00,        +1.714956285e-02,        +1.662807997e-02,        +0.000000000e+00,        +0.000000000e+00,        +1.558726822e-02,        +9.089017811e-01,        +8.311477099e-03,        +4.998458700e-01
 5.900000000e+00,        +1.713561399e-02,        +1.664074285e-02,        +0.000000000e+00,        +0.000000000e+00,        +1.557460208e-02,        +9.089024815e-01,        +8.317832878e-03,        +4.998474497e-01
 6.000000000e+00,        +1.712172567e-02,        +1.665338577e-02,        +0.000000000e+00,        +0.000000000e+00,        +1.556199164e-02,        +9.089032224e-01,        +8.324178113e-03,        +4.998489934e-01
 6.100000000e+00,        +1.710790923e-02,        +1.666599946e-02,        +0.000000000e+00,        +0.000000000e+00,        +1.554944721e-02,        +9.089040048e-01,        +8.330508149e-03,        +4.998504992e-01
 6.200000000e+00,        +1.709417592e-02,        +1.667857472e-02,        +0.000000000e+00,        +0.000000000e+00,        +1.553697905e-02,        +9.089048295e-01,        +8.336818353e-03,        +4.998519653e-01
 6.300000000e+00,        +1.708053687e-02,        +1.669110242e-02,        +0.000000000e+00,        +0.000000000e+00,        +1.552459728e-02,        +9.089056975e-01,        +8.343104128e-03,        +4.998533899e-01
 6.400000000e+00,        +1.706700312e-02,        +1.670357349e-02,        +0.000000000e+00,        +0.000000000e+00,        +1.551231194e-02,        +9.089066097e-01,        +8.349360909e-03,        +4.998547715e-01
 6.500000000e+00,        +1.705358554e-02,        +1.671597893e-02,        +0.000000000e+00,        +0.000000000e+00,        +1.550013294e-02,        +9.089075668e-01,        +8.355584174e-03,        +4.998561083e-01
 6.600000000e+00,        +1.704029490e-02,        +1.672830983e-02,        +0.000000000e+00,        +0.000000000e+00,        +1.548807006e-02,        +9.089085696e-01,        +8.361769440e-03,        +4.998573988e-01
 6.700000000e+00,        +1.702714180e-02,        +1.674055738e-02,        +0.000000000e+00,        +0.000000000e+00,        +1.547613297e-02,        +9.089096190e-01,        +8.367912273e-03,        +4.998586417e-01
 6.800000000e+00,        +1.701413669e-02,        +1.675271286e-02,        +0.000000000e+00,        +0.000000000e+00,        +1.546433115e-02,        +9.089107156e-01,        +8.374008292e-03,        +4.998598354e-01
 6.900000000e+00,        +1.700128984e-02,        +1.676476765e-02,        +0.000000000e+00,        +0.000000000e+00,        +1.545267398e-02,        +9.089118601e-01,        +8.380053167e-03,        +4.998609787e-01
 7.000000000e+00,        +1.698861136e-02,        +1.677671327e-02,        +0.000000000e+00,        +0.000000000e+00,        +1.544117062e-02,        +9.089130533e-01,        +8.386042628e-03,        +4.998620703e-01
 7.100000000e+00,        +1.697611115e-02,        +1.678854133e-02,        +0.000000000e+00,        +0.000000000e+00,        +1.542983011e-02,        +9.089142956e-01,        +8.391972469e-03,        +4.998631091e-01
 7.200000000e+00,        +1.696379893e-02,        +1.680024360e-02,        +0.000000000e+00,        +0.000000000e+00,        +1.541866128e-02,        +9.089155877e-01,        +8.397838546e-03,        +4.998640939e-01
 7.300000000e+00,        +1.695168421e-02,        +1.681181196e-02,        +0.000000000e+00,        +0.000000000e+00,        +1.540767277e-02,        +9.089169301e-01,        +8.403636787e-03,        +4.998650238e-01
 7.400000000e+00,        +1.693977628e-02,        +1.682323845e-02,        +0.000000000e+00,        +0.000000000e+00,        +1.539687305e-02,        +9.089183233e-01,        +8.409363193e-03,        +4.998658978e-01
 7.500000000e+00,        +1.692808420e-02,        +1.683451526e-02,        +0.000000000e+00,        +0.000000000e+00,        +1.538627035e-02,        +9.089197677e-01,        +8.415013841e-03,        +4.998667150e-01
 7.600000000e+00,        +1.691661680e-02,        +1.684563472e-02,        +0.000000000e+00,        +0.000000000e+00,        +1.537587272e-02,        +9.089212636e-01,        +8.420584886e-03,        +4.998674747e-01
 7.700000000e+00,        +1.690538269e-02,        +1.685658934e-02,        +0.000000000e+00,        +0.000000000e+00,        +1.536568796e-02,        +9.089228115e-01,        +8.426072569e-03,        +4.998681762e-01
 7.800000000e+00,        +1.689439020e-02,        +1.686737180e-02,        +0.000000000e+00,        +0.000000000e+00,        +1.535572367e-02,        +9.089244117e-01,        +8.431473216e-03,        +4.998688189e-01
 7.900000000e+00,        +1.688364742e-02,        +1.687797494e-02,        +0.000000000e+00,        +0.000000000e+00,        +1.534598720e-02,        +9.089260642e-01,        +8.436783244e-03,        +4.998694022e-01
 8.000000000e+00,        +1.687316217e-02,        +1.688839181e-02,        +0.000000000e+00,        +0.000000000e+00,        +1.533648565e-02,        +9.089277694e-01,        +8.441999160e-03,        +4.998699257e-01
 8.100000000e+00,        +1.686294199e-02,        +1.689861563e-02,        +0.000000000e+00,        +0.000000000e+00,        +1.532722590e-02,        +9.089295274e-01,        +8.447117571e-03,        +4.998703891e-01
 8.200000000e+00,        +1.685299416e-02,        +1.690863982e-02,        +0.000000000e+00,        +0.000000000e+00,        +1.531821453e-02,        +9.089313382e-01,        +8.452135180e-03,        +4.998707922e-01
 8.300000000e+00,        +1.684332565e-02,        +1.691845800e-02,        +0.000000000e+00,        +0.000000000e+00,        +1.530945791e-02,        +9.089332019e-01,        +8.457048793e-03,        +4.998711346e-01
 8.400000000e+00,        +1.683394315e-02,        +1.692806399e-02,        +0.000000000e+00,        +0.000000000e+00,        +1.530096211e-02,        +9.089351184e-01,        +8.461855321e-03,        +4.998714163e-01
 8.500000000e+00,        +1.682485306e-02,        +1.693745184e-02,        +0.000000000e+00,        +0.000000000e+00,        +1.529273294e-02,        +9.089370876e-01,        +8.466551783e-03,        +4.998716373e-01
 8.600000000e+00,        +1.681606144e-02,        +1.694661581e-02,        +0.000000000e+00,        +0.000000000e+00,        +1.528477591e-02,        +9.089391095e-01,        +8.471135308e-03,        +4.998717976e-01
 8.700000000e+00,        +1.680757408e-02,        +1.695555037e-02,        +0.000000000e+00,        +0.000000000e+00,        +1.527709628e-02,        +9.089411837e-01,        +8.475603137e-03,        +4.998718975e-01
 8.800000000e+00,        +1.679939642e-02,        +1.696425024e-02,        +0.000000000e+00,        +0.000000000e+00,        +1.526969899e-02,        +9.089433100e-01,        +8.479952629e-03,        +4.998719371e-01
 8.900000000e+00,        +1.679153360e-02,        +1.697271036e-02,        +0.000000000e+00,        +0.000000000e+00,        +1.526258870e-02,        +9.089454882e-01,        +8.484181258e-03,        +4.998719167e-01
 9.000000000e+00,        +1.678399042e-02,        +1.698092590e-02,        +0.000000000e+00,        +0.000000000e+00,        +1.525576979e-02,        +9.089477178e-01,        +8.488286620e-03,        +4.998718368e-01
 9.100000000e+00,        +1.677677137e-02,        +1.698889230e-02,        +0.000000000e+00,        +0.000000000e+00,        +1.524924631e-02,        +9.089499983e-01,        +8.492266435e-03,        +4.998716977e-01
 9.200000000e+00,        +1.676988057e-02,        +1.699660522e-02,        +0.000000000e+00,        +0.000000000e+00,        +1.524302201e-02,        +9.089523294e-01,        +8.496118546e-03,        +4.998715001e-01
 9.300000000e+00,        +1.676332183e-02,        +1.700406058e-02,        +0.000000000e+00,        +0.000000000e+00,        +1.523710034e-02,        +9.089547105e-01,        +8.499840924e-03,        +4.998712445e-01
 9.400000000e+00,        +1.675709861e-02,        +1.701125456e-02,        +0.000000000e+00,        +0.000000000e+00,        +1.523148444e-02,        +9.089571409e-01,        +8.503431668e-03,        +4.998709317e-01
 9.500000000e+00,        +1.675121402e-02,        +1.701818361e-02,        +0.000000000e+00,        +0.000000000e+00,        +1.522617713e-02,        +9.089596200e-01,        +8.506889009e-03,        +4.998705624e-01
 9.600000000e+00,        +1.674567084e-02,        +1.702484441e-02,        +0.000000000e+00,        +0.000000000e+00,        +1.522118092e-02,        +9.089621471e-01,        +8.510211312e-03,        +4.998701373e-01
 9.700000000e+00,        +1.674047148e-02,        +1.703123393e-02,        +0.000000000e+00,        +0.000000000e+00,        +1.521649799e-02,        +9.089647215e-01,        +8.513397075e-03,        +4.998696576e-01
 9.800000000e+00,        +1.673561801e-02,        +1.703734943e-02,        +0.000000000e+00,        +0.000000000e+00,        +1.521213022e-02,        +9.089673422e-01,        +8.516444933e-03,        +4.998691239e-01
 9.900000000e+00,        +1.673111214e-02,        +1.704318840e-02,        +0.000000000e+00,        +0.000000000e+00,        +1.520807914e-02,        +9.089700085e-01,        +8.519353660e-03,        +4.998685374e-01
 1.000000000e+01,        +1.672695524e-02,        +1.704874865e-02,        +0.000000000e+00,        +0.000000000e+00,        +1.520434599e-02,        +9.089727194e-01,        +8.522122169e-03,        +4.998678992e-01
 1.010000000e+01,        +1.672314833e-02,        +1.705402823e-02,        +0.000000000e+00,        +0.000000000e+00,        +1.520093168e-02,        +9.089754739e-01,        +8.524749515e-03,        +4.998672102e-01
 1.020000000e+01,        +1.671969206e-02,        +1.705902552e-02,        +0.000000000e+00,        +0.000000000e+00,        +1.519783678e-02,        +9.089782711e-01,        +8.527234896e-03,        +4.998664717e-01
 1.030000000e+01,        +1.671658675e-02,        +1.706373915e-02,        +0.000000000e+00,        +0.000000000e+00,        +1.519506157e-02,        +9.089811098e-01,        +8.529577653e-03,        +4.998656848e-01
 1.040000000e+01,        +1.671383235e-02,        +1.706816805e-02,        +0.000000000e+00,        +0.000000000e+00,        +1.519260600e-02,        +9.089839891e-01,        +8.531777275e-03,        +4.998648507e-01
 1.050000000e+01,        +1.671142848e-02,        +1.707231146e-02,        +0.000000000e+00,        +0.000000000e+00,        +1.519046969e-02,        +9.089869076e-01,        +8.533833395e-03,        +4.998639706e-01
 1.060000000e+01,        +1.670937441e-02,        +1.707616890e-02,        +0.000000000e+00,        +0.000000000e+00,        +1.518865198e-02,        +9.089898643e-01,        +8.535745798e-03,        +4.998630458e-01
 1.070000000e+01,        +1.670766907e-02,        +1.707974020e-02,        +0.000000000e+00,        +0.000000000e+00,        +1.518715186e-02,        +9.089928580e-01,        +8.537514418e-03,        +4.998620775e-01
 1.080000000e+01,        +1.670631106e-02,        +1.708302547e-02,        +0.000000000e+00,        +0.000000000e+00,        +1.518596804e-02,        +9.089958873e-01,        +8.539139339e-03,        +4.998610669e-01
 1.090000000e+01,        +1.670529864e-02,        +1.708602517e-02,        +0.000000000e+00,        +0.000000000e+00,        +1.518509894e-02,        +9.089989511e-01,        +8.540620799e-03,        +4.998600152e-01
 1.100000000e+01,        +1.670462975e-02,        +1.708874003e-02,        +0.000000000e+00,        +0.000000000e+00,        +1.518454266e-02,        +9.090020480e-01,        +8.541959193e-03,        +4.998589235e-01
