         f (GHz),              E_elec (J),               E_mag (J),               E_cap (J),               E_ind (J),           E_elec[1] (J),               p_elec[1],            E_mag[1] (J),                p_mag[1]
 2.000000000e+00,        +1.913387436e-02,        +1.376342831e-02,        +0.000000000e+00,        +0.000000000e+00,        +1.740245211e-02,        +9.095101066e-01,        +6.884852571e-03,        +5.002280259e-01
 2.100000000e+00,        +1.909212228e-02,        +1.378756785e-02,        +0.000000000e+00,        +0.000000000e+00,        +1.736446602e-02,        +9.095094699e-01,        +6.896956724e-03,        +5.002301202e-01
 2.200000000e+00,        +1.904873932e-02,        +1.381271617e-02,        +0.000000000e+00,        +0.000000000e+00,        +1.732499621e-02,        +9.095088088e-01,        +6.909566639e-03,        +5.002322897e-01
 2.300000000e+00,        +1.900377919e-02,        +1.383885052e-02,        +0.000000000e+00,        +0.000000000e+00,        +1.728409157e-02,        +9.095081242e-01,        +6.922670899e-03,        +5.002345310e-01
 2.400000000e+00,        +1.895729727e-02,        +1.386594738e-02,        +0.000000000e+00,        +0.000000000e+00,        +1.724180247e-02,        +9.095074170e-01,        +6.936257708e-03,        +5.002368407e-01
 2.500000000e+00,        +1.890935043e-02,        +1.389398253e-02,        +0.000000000e+00,        +0.000000000e+00,        +1.719818069e-02,        +9.095066882e-01,        +6.950314920e-03,        +5.002392154e-01
 2.600000000e+00,        +1.885999701e-02,        +1.392293112e-02,        +0.000000000e+00,        +0.000000000e+00,        +1.715327929e-02,        +9.095059389e-01,        +6.964830056e-03,        +5.002416516e-01
 2.700000000e+00,        +1.880929665e-02,        +1.395276763e-02,        +0.000000000e+00,        +0.000000000e+00,        +1.710715255e-02,        +9.095051702e-01,        +6.979790325e-03,        +5.002441457e-01
 2.800000000e+00,        +1.875731020e-02,        +1.398346600e-02,        +0.000000000e+00,        +0.000000000e+00,        +1.705985585e-02,        +9.095043833e-01,        +6.995182641e-03,        +5.002466943e-01
 2.900000000e+00,        +1.870409966e-02,        +1.401499959e-02,        +0.000000000e+00,        +0.000000000e+00,        +1.701144559e-02,        +9.095035793e-01,        +7.010993645e-03,        +5.002492937e-01
 3.000000000e+00,        +1.864972801e-02,        +1.404734127e-02,        +0.000000000e+00,        +0.000000000e+00,        +1.696197909e-02,        +9.095027594e-01,        +7.027209725e-03,        +5.002519402e-01
 3.100000000e+00,        +1.859425915e-02,        +1.408046344e-02,        +0.000000000e+00,        +0.000000000e+00,        +1.691151449e-02,        +9.095019251e-01,        +7.043817033e-03,        +5.002546304e-01
 3.200000000e+00,        +1.853775777e-02,        +1.411433807e-02,        +0.000000000e+00,        +0.000000000e+00,        +1.686011067e-02,        +9.095010775e-01,        +7.060801507e-03,        +5.002573604e-01
 3.300000000e+00,        +1.848028928e-02,        +1.414893675e-02,        +0.000000000e+00,        +0.000000000e+00,        +1.680782713e-02,        +9.095002182e-01,        +7.078148888e-03,        +5.002601266e-01
 3.400000000e+00,        +1.842191965e-02,        +1.418423069e-02,        +0.000000000e+00,        +0.000000000e+00,        +1.675472392e-02,        +9.094993485e-01,        +7.095844742e-03,        +5.002629254e-01
 3.500000000e+00,        +1.836271538e-02,        +1.422019083e-02,        +0.000000000e+00,        +0.000000000e+00,        +1.670086155e-02,        +9.094984699e-01,        +7.113874477e-03,        +5.002657532e-01
 3.600000000e+00,        +1.830274334e-02,        +1.425678779e-02,        +0.000000000e+00,        +0.000000000e+00,        +1.664630085e-02,        +9.094975841e-01,        +7.132223359e-03,        +5.002686063e-01
 3.700000000e+00,        +1.824207069e-02,        +1.429399197e-02,        +0.000000000e+00,        +0.000000000e+00,        +1.659110295e-02,        +9.094966925e-01,        +7.150876536e-03,        +5.002714811e-01
 3.800000000e+00,        +1.818076478e-02,        +1.433177357e-02,        +0.000000000e+00,        +0.000000000e+00,        +1.653532915e-02,        +9.094957968e-01,        +7.169819050e-03,        +5.002743741e-01
 3.900000000e+00,        +1.811889309e-02,        +1.437010258e-02,        +0.000000000e+00,        +0.000000000e+00,        +1.647904084e-02,        +9.094948987e-01,        +7.189035856e-03,        +5.002772815e-01
 4.000000000e+00,        +1.805652307e-02,        +1.440894891e-02,        +0.000000000e+00,        +0.000000000e+00,        +1.642229939e-02,        +9.094940000e-01,        +7.208511842e-03,        +5.002802001e-01
 4.100000000e+00,        +1.799372210e-02,        +1.444828231e-02,        +0.000000000e+00,        +0.000000000e+00,        +1.636516613e-02,        +9.094931024e-01,        +7.228231841e-03,        +5.002831262e-01
 4.200000000e+00,        +1.793055738e-02,        +1.448807248e-02,        +0.000000000e+00,        +0.000000000e+00,        +1.630770222e-02,        +9.094922078e-01,        +7.248180649e-03,        +5.002860565e-01
 4.300000000e+00,        +1.786709585e-02,        +1.452828909e-02,        +0.000000000e+00,        +0.000000000e+00,        +1.624996856e-02,        +9.094913180e-01,        +7.268343040e-03,        +5.002889874e-01
 4.400000000e+00,        +1.780340412e-02,        +1.456890178e-02,        +0.000000000e+00,        +0.000000000e+00,        +1.619202576e-02,        +9.094904350e-01,        +7.288703782e-03,        +5.002919158e-01
 4.500000000e+00,        +1.773954834e-02,        +1.460988019e-02,        +0.000000000e+00,        +0.000000000e+00,        +1.613393403e-02,        +9.094895608e-01,        +7.309247649e-03,        +5.002948382e-01
 4.600000000e+00,        +1.767559419e-02,        +1.465119404e-02,        +0.000000000e+00,        +0.000000000e+00,        +1.607575313e-02,        +9.094886974e-01,        +7.329959436e-03,        +5.002977515e-01
 4.700000000e+00,        +1.761160673e-02,        +1.469281309e-02,        +0.000000000e+00,        +0.000000000e+00,        +1.601754229e-02,        +9.094878468e-01,        +7.350823975e-03,        +5.003006525e-01
 4.800000000e+00,        +1.754765041e-02,        +1.473470720e-02,        +0.000000000e+00,        +0.000000000e+00,        +1.595936012e-02,        +9.094870112e-01,        +7.371826143e-03,        +5.003035380e-01
 4.900000000e+00,        +1.748378891e-02,        +1.477684635e-02,        +0.000000000e+00,        +0.000000000e+00,        +1.590126461e-02,        +9.094861926e-01,        +7.392950875e-03,        +5.003064049e-01
 5.000000000e+00,        +1.742008516e-02,        +1.481920068e-02,        +0.000000000e+00,        +0.000000000e+00,        +1.584331300e-02,        +9.094853933e-01,        +7.414183180e-03,        +5.003092503e-01
 5.100000000e+00,        +1.735660120e-02,        +1.486174045e-02,        +0.000000000e+00,        +0.000000000e+00,        +1.578556177e-02,        +9.094846155e-01,        +7.435508146e-03,        +5.003120712e-01
 5.200000000e+00,        +1.729339817e-02,        +1.490443615e-02,        +0.000000000e+00,        +0.000000000e+00,        +1.572806655e-02,        +9.094838614e-01,        +7.456910954e-03,        +5.003148646e-01
 5.300000000e+00,        +1.723053623e-02,        +1.494725844e-02,        +0.000000000e+00,        +0.000000000e+00,        +1.567088208e-02,        +9.094831334e-01,        +7.478376888e-03,        +5.003176279e-01
 5.400000000e+00,        +1.716807450e-02,        +1.499017823e-02,        +0.000000000e+00,        +0.000000000e+00,        +1.561406218e-02,        +9.094824336e-01,        +7.499891341e-03,        +5.003203581e-01
 5.500000000e+00,        +1.710607103e-02,        +1.503316665e-02,        +0.000000000e+00,        +0.000000000e+00,        +1.555765967e-02,        +9.094817645e-01,        +7.521439828e-03,        +5.003230525e-01
 5.600000000e+00,        +1.704458271e-02,        +1.507619509e-02,        +0.000000000e+00,        +0.000000000e+00,        +1.550172632e-02,        +9.094811284e-01,        +7.543007991e-03,        +5.003257086e-01
 5.700000000e+00,        +1.698366527e-02,        +1.511923521e-02,        +0.000000000e+00,        +0.000000000e+00,        +1.544631285e-02,        +9.094805277e-01,        +7.564581609e-03,        +5.003283238e-01
 5.800000000e+00,        +1.692337319e-02,        +1.516225896e-02,        +0.000000000e+00,        +0.000000000e+00,        +1.539146885e-02,        +9.094799648e-01,        +7.586146604e-03,        +5.003308954e-01
 5.900000000e+00,        +1.686375969e-02,        +1.520523860e-02,        +0.000000000e+00,        +0.000000000e+00,        +1.533724276e-02,        +9.094794421e-01,        +7.607689048e-03,        +5.003334210e-01
 6.000000000e+00,        +1.680487669e-02,        +1.524814668e-02,        +0.000000000e+00,        +0.000000000e+00,        +1.528368181e-02,        +9.094789621e-01,        +7.629195168e-03,        +5.003358983e-01
 6.100000000e+00,        +1.674677472e-02,        +1.529095610e-02,        +0.000000000e+00,        +0.000000000e+00,        +1.523083201e-02,        +9.094785271e-01,        +7.650651356e-03,        +5.003383247e-01
 6.200000000e+00,        +1.668950298e-02,        +1.533364005e-02,        +0.000000000e+00,        +0.000000000e+00,        +1.517873812e-02,        +9.094781395e-01,        +7.672044169e-03,        +5.003406981e-01
 6.300000000e+00,        +1.663310921e-02,        +1.537617213e-02,        +0.000000000e+00,        +0.000000000e+00,        +1.512744361e-02,        +9.094778019e-01,        +7.693360338e-03,        +5.003430161e-01
 6.400000000e+00,        +1.657763973e-02,        +1.541852623e-02,        +0.000000000e+00,        +0.000000000e+00,        +1.507699061e-02,        +9.094775167e-01,        +7.714586770e-03,        +5.003452766e-01
 6.500000000e+00,        +1.652313936e-02,        +1.546067665e-02,        +0.000000000e+00,        +0.000000000e+00,        +1.502741994e-02,        +9.094772861e-01,        +7.735710557e-03,        +5.003474773e-01
 6.600000000e+00,        +1.646965143e-02,        +1.550259802e-02,        +0.000000000e+00,        +0.000000000e+00,        +1.497877103e-02,        +9.094771128e-01,        +7.756718972e-03,        +5.003496162e-01
 6.700000000e+00,        +1.641721774e-02,        +1.554426540e-02,        +0.000000000e+00,        +0.000000000e+00,        +1.493108192e-02,        +9.094769990e-01,        +7.777599480e-03,        +5.003516912e-01
 6.800000000e+00,        +1.636587854e-02,        +1.558565418e-02,        +0.000000000e+00,        +0.000000000e+00,        +1.488438925e-02,        +9.094769472e-01,        +7.798339740e-03,        +5.003537003e-01
 6.900000000e+00,        +1.631567252e-02,        +1.562674018e-02,        +0.000000000e+00,        +0.000000000e+00,        +1.483872823e-02,        +9.094769595e-01,        +7.818927605e-03,        +5.003556414e-01
 7.000000000e+00,        +1.626663675e-02,        +1.566749959e-02,        +0.000000000e+00,        +0.000000000e+00,        +1.479413261e-02,        +9.094770385e-01,        +7.839351126e-03,        +5.003575127e-01
 7.100000000e+00,        +1.621880671e-02,        +1.570790903e-02,        +0.000000000e+00,        +0.000000000e+00,        +1.475063469e-02,        +9.094771862e-01,        +7.859598558e-03,        +5.003593123e-01
 7.200000000e+00,        +1.617221627e-02,        +1.574794550e-02,        +0.000000000e+00,        +0.000000000e+00,        +1.470826528e-02,        +9.094774050e-01,        +7.879658360e-03,        +5.003610381e-01
 7.300000000e+00,        +1.612689763e-02,        +1.578758644e-02,        +0.000000000e+00,        +0.000000000e+00,        +1.466705371e-02,        +9.094776970e-01,        +7.899519195e-03,        +5.003626886e-01
 7.400000000e+00,        +1.608288135e-02,        +1.582680968e-02,        +0.000000000e+00,        +0.000000000e+00,        +1.462702780e-02,        +9.094780644e-01,        +7.919169939e-03,        +5.003642617e-01
 7.500000000e+00,        +1.604019634e-02,        +1.586559348e-02,        +0.000000000e+00,        +0.000000000e+00,        +1.458821385e-02,        +9.094785091e-01,        +7.938599675e-03,        +5.003657558e-01
 7.600000000e+00,        +1.599886981e-02,        +1.590391655e-02,        +0.000000000e+00,        +0.000000000e+00,        +1.455063665e-02,        +9.094790333e-01,        +7.957797702e-03,        +5.003671692e-01
 7.700000000e+00,        +1.595892730e-02,        +1.594175799e-02,        +0.000000000e+00,        +0.000000000e+00,        +1.451431944e-02,        +9.094796387e-01,        +7.976753534e-03,        +5.003685000e-01
 7.800000000e+00,        +1.592039266e-02,        +1.597909737e-02,        +0.000000000e+00,        +0.000000000e+00,        +1.447928392e-02,        +9.094803274e-01,        +7.995456900e-03,        +5.003697466e-01
 7.900000000e+00,        +1.588328801e-02,        +1.601591466e-02,        +0.000000000e+00,        +0.000000000e+00,        +1.444555027e-02,        +9.094811010e-01,        +8.013897752e-03,        +5.003709074e-01
 8.000000000e+00,        +1.584763380e-02,        +1.605219031e-02,        +0.000000000e+00,        +0.000000000e+00,        +1.441313707e-02,        +9.094819613e-01,        +8.032066260e-03,        +5.003719807e-01
 8.100000000e+00,        +1.581344874e-02,        +1.608790519e-02,        +0.000000000e+00,        +0.000000000e+00,        +1.438206138e-02,        +9.094829099e-01,        +8.049952819e-03,        +5.003729648e-01
 8.200000000e+00,        +1.578074984e-02,        +1.612304063e-02,        +0.000000000e+00,        +0.000000000e+00,        +1.435233867e-02,        +9.094839482e-01,        +8.067548049e-03,        +5.003738583e-01
 8.300000000e+00,        +1.574955238e-02,        +1.615757842e-02,        +0.000000000e+00,        +0.000000000e+00,        +1.432398287e-02,        +9.094850777e-01,        +8.084842798e-03,        +5.003746595e-01
 8.400000000e+00,        +1.571986992e-02,        +1.619150078e-02,        +0.000000000e+00,        +0.000000000e+00,        +1.429700632e-02,        +9.094862997e-01,        +8.101828144e-03,        +5.003753668e-01
 8.500000000e+00,        +1.569171428e-02,        +1.622479044e-02,        +0.000000000e+00,        +0.000000000e+00,        +1.427141980e-02,        +9.094876154e-01,        +8.118495396e-03,        +5.003759788e-01
 8.600000000e+00,        +1.566509557e-02,        +1.625743055e-02,        +0.000000000e+00,        +0.000000000e+00,        +1.424723251e-02,        +9.094890259e-01,        +8.134836100e-03,        +5.003764939e-01
 8.700000000e+00,        +1.564002217e-02,        +1.628940477e-02,        +0.000000000e+00,        +0.000000000e+00,        +1.422445209e-02,        +9.094905321e-01,        +8.150842036e-03,        +5.003769107e-01
 8.800000000e+00,        +1.561650074e-02,        +1.632069722e-02,        +0.000000000e+00,        +0.000000000e+00,        +1.420308460e-02,        +9.094921349e-01,        +8.166505229e-03,        +5.003772276e-01
 8.900000000e+00,        +1.559453620e-02,        +1.635129251e-02,        +0.000000000e+00,        +0.000000000e+00,        +1.418313453e-02,        +9.094938350e-01,        +8.181817941e-03,        +5.003774433e-01
 9.000000000e+00,        +1.557413176e-02,        +1.638117574e-02,        +0.000000000e+00,        +0.000000000e+00,        +1.416460482e-02,        +9.094956329e-01,        +8.196772684e-03,        +5.003775563e-01
 9.100000000e+00,        +1.555528890e-02,        +1.641033250e-02,        +0.000000000e+00,        +0.000000000e+00,        +1.414749682e-02,        +9.094975292e-01,        +8.211362219e-03,        +5.003775653e-01
 9.200000000e+00,        +1.553800740e-02,        +1.643874889e-02,        +0.000000000e+00,        +0.000000000e+00,        +1.413181034e-02,        +9.094995241e-01,        +8.225579558e-03,        +5.003774688e-01
 9.300000000e+00,        +1.552228533e-02,        +1.646641152e-02,        +0.000000000e+00,        +0.000000000e+00,        +1.411754362e-02,        +9.095016178e-01,        +8.239417971e-03,        +5.003772657e-01
 9.400000000e+00,        +1.550811904e-02,        +1.649330751e-02,        +0.000000000e+00,        +0.000000000e+00,        +1.410469336e-02,        +9.095038104e-01,        +8.252870985e-03,        +5.003769547e-01
 9.500000000e+00,        +1.549550321e-02,        +1.651942452e-02,        +0.000000000e+00,        +0.000000000e+00,        +1.409325472e-02,        +9.095061016e-01,        +8.265932395e-03,        +5.003765346e-01
 9.600000000e+00,        +1.548443082e-02,        +1.654475073e-02,        +0.000000000e+00,        +0.000000000e+00,        +1.408322131e-02,        +9.095084913e-01,        +8.278596262e-03,        +5.003760042e-01
 9.700000000e+00,        +1.547489316e-02,        +1.656927487e-02,        +0.000000000e+00,        +0.000000000e+00,        +1.407458522e-02,        +9.095109789e-01,        +8.290856919e-03,        +5.003753625e-01
 9.800000000e+00,        +1.546687986e-02,        +1.659298620e-02,        +0.000000000e+00,        +0.000000000e+00,        +1.406733703e-02,        +9.095135639e-01,        +8.302708977e-03,        +5.003746086e-01
 9.900000000e+00,        +1.546037892e-02,        +1.661587457e-02,        +0.000000000e+00,        +0.000000000e+00,        +1.406146579e-02,        +9.095162456e-01,        +8.314147329e-03,        +5.003737416e-01
 1.000000000e+01,        +1.545537665e-02,        +1.663793037e-02,        +0.000000000e+00,        +0.000000000e+00,        +1.405695907e-02,        +9.095190230e-01,        +8.325167153e-03,        +5.003727608e-01
 1.010000000e+01,        +1.545185777e-02,        +1.665914457e-02,        +0.000000000e+00,        +0.000000000e+00,        +1.405380296e-02,        +9.095218950e-01,        +8.335763920e-03,        +5.003716657e-01
 1.020000000e+01,        +1.544980536e-02,        +1.667950875e-02,        +0.000000000e+00,        +0.000000000e+00,        +1.405198206e-02,        +9.095248605e-01,        +8.345933398e-03,        +5.003704559e-01
 1.030000000e+01,        +1.544920092e-02,        +1.669901506e-02,        +0.000000000e+00,        +0.000000000e+00,        +1.405147954e-02,        +9.095279179e-01,        +8.355671658e-03,        +5.003691313e-01
 1.040000000e+01,        +1.545002436e-02,        +1.671765626e-02,        +0.000000000e+00,        +0.000000000e+00,        +1.405227712e-02,        +9.095310657e-01,        +8.364975077e-03,        +5.003676919e-01
 1.050000000e+01,        +1.545225403e-02,        +1.673542573e-02,        +0.000000000e+00,        +0.000000000e+00,        +1.405435509e-02,        +9.095343022e-01,        +8.373840347e-03,        +5.003661383e-01
 1.060000000e+01,        +1.545586676e-02,        +1.675231749e-02,        +0.000000000e+00,        +0.000000000e+00,        +1.405769235e-02,        +9.095376254e-01,        +8.382264481e-03,        +5.003644711e-01
 1.070000000e+01,        +1.546083784e-02,        +1.676832616e-02,        +0.000000000e+00,        +0.000000000e+00,        +1.406226642e-02,        +9.095410332e-01,        +8.390244813e-03,        +5.003626917e-01
 1.080000000e+01,        +1.546714108e-02,        +1.678344704e-02,        +0.000000000e+00,        +0.000000000e+00,        +1.406805346e-02,        +9.095445233e-01,        +8.397779013e-03,        +5.003608016e-01
 1.090000000e+01,        +1.547474881e-02,        +1.679767605e-02,        +0.000000000e+00,        +0.000000000e+00,        +1.407502828e-02,        +9.095480934e-01,        +8.404865085e-03,        +5.003588032e-01
 1.100000000e+01,        +1.548363195e-02,        +1.681100981e-02,        +0.000000000e+00,        +0.000000000e+00,        +1.408316439e-02,        +9.095517408e-01,        +8.411501380e-03,        +5.003566993e-01
