         f (GHz),          |S[1][1]| (dB),     arg(S[1][1]) (deg.),          |S[2][1]| (dB),     arg(S[2][1]) (deg.),          |S[3][1]| (dB),     arg(S[3][1]) (deg.),          |S[4][1]| (dB),     arg(S[4][1]) (deg.)
 2.000000000e+00,        -2.286394614e+01,        -1.120076211e+02,        -5.640141344e-02,        -2.385417805e+01,        -4.756173625e+01,        +1.188650744e+01,        -4.867067284e+01,        +1.573208770e+02
 2.100000000e+00,        -2.246688651e+01,        -1.132785455e+02,        -5.872716118e-02,        -2.504234441e+01,        -4.746932302e+01,        +1.219962431e+01,        -4.867319746e+01,        +1.561944638e+02
 2.200000000e+00,        -2.209077577e+01,        -1.145410496e+02,        -6.113646984e-02,        -2.622988412e+01,        -4.737546684e+01,        +1.248173439e+01,        -4.867579812e+01,        +1.550690714e+02
 2.300000000e+00,        -2.173386955e+01,        -1.157961251e+02,        -6.362539048e-02,        -2.741677600e+01,        -4.728042696e+01,        +1.273308646e+01,        -4.867846901e+01,        +1.539447327e+02
 2.400000000e+00,        -2.139464577e+01,        -1.170445961e+02,        -6.618985133e-02,        -2.860299995e+01,        -4.718444999e+01,        +1.295401926e+01,        -4.868120418e+01,        +1.528214792e+02
 2.500000000e+00,        -2.107176847e+01,        -1.182871531e+02,        -6.882566466e-02,        -2.978853703e+01,        -4.708776965e+01,        +1.314495008e+01,        -4.868399750e+01,        +1.516993405e+02
 2.600000000e+00,        -2.076405872e+01,        -1.195243786e+02,        -7.152853449e-02,        -3.097336942e+01,        -4.699060659e+01,        +1.330636408e+01,        -4.868684269e+01,        +1.505783449e+02
 2.700000000e+00,        -2.047047099e+01,        -1.207567671e+02,        -7.429406401e-02,        -3.215748051e+01,        -4.689316840e+01,        +1.343880414e+01,        -4.868973331e+01,        +1.494585188e+02
 2.800000000e+00,        -2.019007387e+01,        -1.219847417e+02,        -7.711776311e-02,        -3.334085489e+01,        -4.679564984e+01,        +1.354286162e+01,        -4.869266278e+01,        +1.483398867e+02
 2.900000000e+00,        -1.992203407e+01,        -1.232086660e+02,        -7.999505638e-02,        -3.452347837e+01,        -4.669823303e+01,        +1.361916773e+01,        -4.869562438e+01,        +1.472224716e+02
 3.000000000e+00,        -1.966560320e+01,        -1.244288544e+02,        -8.292129097e-02,        -3.570533803e+01,        -4.660108782e+01,        +1.366838574e+01,        -4.869861126e+01,        +1.461062944e+02
 3.100000000e+00,        -1.942010668e+01,        -1.256455808e+02,        -8.589174432e-02,        -3.688642219e+01,        -4.650437224e+01,        +1.369120385e+01,        -4.870161645e+01,        +1.449913740e+02
 3.200000000e+00,        -1.918493443e+01,        -1.268590840e+02,        -8.890163261e-02,        -3.806672046e+01,        -4.640823292e+01,        +1.368832887e+01,        -4.870463287e+01,        +1.438777276e+02
 3.300000000e+00,        -1.895953299e+01,        -1.280695745e+02,        -9.194611848e-02,        -3.924622375e+01,        -4.631280565e+01,        +1.366048055e+01,        -4.870765333e+01,        +1.427653701e+02
 3.400000000e+00,        -1.874339878e+01,        -1.292772379e+02,        -9.502031938e-02,        -4.042492425e+01,        -4.621821590e+01,        +1.360838657e+01,        -4.871067057e+01,        +1.416543146e+02
 3.500000000e+00,        -1.853607240e+01,        -1.304822391e+02,        -9.811931557e-02,        -4.160281547e+01,        -4.612457934e+01,        +1.353277813e+01,        -4.871367723e+01,        +1.405445721e+02
 3.600000000e+00,        -1.833713368e+01,        -1.316847253e+02,        -1.012381584e-01,        -4.277989223e+01,        -4.603200248e+01,        +1.343438617e+01,        -4.871666588e+01,        +1.394361512e+02
 3.700000000e+00,        -1.814619744e+01,        -1.328848286e+02,        -1.043718784e-01,        -4.395615068e+01,        -4.594058316e+01,        +1.331393805e+01,        -4.871962905e+01,        +1.383290589e+02
 3.800000000e+00,        -1.796290980e+01,        -1.340826680e+02,        -1.075154929e-01,        -4.513158828e+01,        -4.585041113e+01,        +1.317215471e+01,        -4.872255921e+01,        +1.372232997e+02
 3.900000000e+00,        -1.778694498e+01,        -1.352783514e+02,        -1.106640150e-01,        -4.630620380e+01,        -4.576156862e+01,        +1.300974838e+01,        -4.872544881e+01,        +1.361188760e+02
 4.000000000e+00,        -1.761800250e+01,        -1.364719771e+02,        -1.138124607e-01,        -4.747999732e+01,        -4.567413081e+01,        +1.282742053e+01,        -4.872829025e+01,        +1.350157881e+02
 4.100000000e+00,        -1.745580476e+01,        -1.376636352e+02,        -1.169558570e-01,        -4.865297024e+01,        -4.558816642e+01,        +1.262586029e+01,        -4.873107594e+01,        +1.339140341e+02
 4.200000000e+00,        -1.730009483e+01,        -1.388534087e+02,        -1.200892501e-01,        -4.982512526e+01,        -4.550373811e+01,        +1.240574313e+01,        -4.873379830e+01,        +1.328136100e+02
 4.300000000e+00,        -1.715063462e+01,        -1.400413742e+02,        -1.232077125e-01,        -5.099646635e+01,        -4.542090302e+01,        +1.216772986e+01,        -4.873644973e+01,        +1.317145096e+02
 4.400000000e+00,        -1.700720317e+01,        -1.412276033e+02,        -1.263063510e-01,        -5.216699878e+01,        -4.533971318e+01,        +1.191246584e+01,        -4.873902268e+01,        +1.306167246e+02
 4.500000000e+00,        -1.686959514e+01,        -1.424121628e+02,        -1.293803141e-01,        -5.333672907e+01,        -4.526021594e+01,        +1.164058048e+01,        -4.874150962e+01,        +1.295202444e+02
 4.600000000e+00,        -1.673761956e+01,        -1.435951156e+02,        -1.324247995e-01,        -5.450566500e+01,        -4.518245436e+01,        +1.135268682e+01,        -4.874390308e+01,        +1.284250565e+02
 4.700000000e+00,        -1.661109857e+01,        -1.447765212e+02,        -1.354350607e-01,        -5.567381557e+01,        -4.510646761e+01,        +1.104938140e+01,        -4.874619565e+01,        +1.273311462e+02
 4.800000000e+00,        -1.648986644e+01,        -1.459564361e+02,        -1.384064148e-01,        -5.684119101e+01,        -4.503229127e+01,        +1.073124417e+01,        -4.874837997e+01,        +1.262384966e+02
 4.900000000e+00,        -1.637376859e+01,        -1.471349143e+02,        -1.413342491e-01,        -5.800780273e+01,        -4.495995771e+01,        +1.039883862e+01,        -4.875044877e+01,        +1.251470890e+02
 5.000000000e+00,        -1.626266076e+01,        -1.483120074e+02,        -1.442140276e-01,        -5.917366331e+01,        -4.488949638e+01,        +1.005271196e+01,        -4.875239488e+01,        +1.240569026e+02
 5.100000000e+00,        -1.615640828e+01,        -1.494877654e+02,        -1.470412980e-01,        -6.033878649e+01,        -4.482093408e+01,        +9.693395377e+00,        -4.875421122e+01,        +1.229679144e+02
 5.200000000e+00,        -1.605488532e+01,        -1.506622365e+02,        -1.498116978e-01,        -6.150318711e+01,        -4.475429525e+01,        +9.321404425e+00,        -4.875589081e+01,        +1.218800999e+02
 5.300000000e+00,        -1.595797435e+01,        -1.518354676e+02,        -1.525209607e-01,        -6.266688114e+01,        -4.468960220e+01,        +8.937239447e+00,        -4.875742681e+01,        +1.207934324e+02
 5.400000000e+00,        -1.586556555e+01,        -1.530075044e+02,        -1.551649224e-01,        -6.382988559e+01,        -4.462687533e+01,        +8.541386054e+00,        -4.875881250e+01,        +1.197078834e+02
 5.500000000e+00,        -1.577755633e+01,        -1.541783915e+02,        -1.577395266e-01,        -6.499221852e+01,        -4.456613339e+01,        +8.134315652e+00,        -4.876004129e+01,        +1.186234228e+02
 5.600000000e+00,        -1.569385084e+01,        -1.553481728e+02,        -1.602408307e-01,        -6.615389899e+01,        -4.450739360e+01,        +7.716486013e+00,        -4.876110675e+01,        +1.175400185e+02
 5.700000000e+00,        -1.561435962e+01,        -1.565168915e+02,        -1.626650111e-01,        -6.731494705e+01,        -4.445067191e+01,        +7.288341865e+00,        -4.876200259e+01,        +1.164576368e+02
 5.800000000e+00,        -1.553899918e+01,        -1.576845899e+02,        -1.650083685e-01,        -6.847538369e+01,        -4.439598311e+01,        +6.850315511e+00,        -4.876272268e+01,        +1.153762427e+02
 5.900000000e+00,        -1.546769167e+01,        -1.588513103e+02,        -1.672673330e-01,        -6.963523082e+01,        -4.434334101e+01,        +6.402827474e+00,        -4.876326107e+01,        +1.142957991e+02
 6.000000000e+00,        -1.540036460e+01,        -1.600170941e+02,        -1.694384688e-01,        -7.079451120e+01,        -4.429275856e+01,        +5.946287146e+00,        -4.876361196e+01,        +1.132162680e+02
 6.100000000e+00,        -1.533695055e+01,        -1.611819827e+02,        -1.715184790e-01,        -7.195324848e+01,        -4.424424801e+01,        +5.481093454e+00,        -4.876376974e+01,        +1.121376096e+02
 6.200000000e+00,        -1.527738692e+01,        -1.623460170e+02,        -1.735042098e-01,        -7.311146706e+01,        -4.419782100e+01,        +5.007635534e+00,        -4.876372898e+01,        +1.110597829e+02
 6.300000000e+00,        -1.522161570e+01,        -1.635092378e+02,        -1.753926549e-01,        -7.426919214e+01,        -4.415348869e+01,        +4.526293411e+00,        -4.876348444e+01,        +1.099827456e+02
 6.400000000e+00,        -1.516958326e+01,        -1.646716857e+02,        -1.771809595e-01,        -7.542644965e+01,        -4.411126183e+01,        +4.037438684e+00,        -4.876303104e+01,        +1.089064542e+02
 6.500000000e+00,        -1.512124018e+01,        -1.658334011e+02,        -1.788664239e-01,        -7.658326621e+01,        -4.407115089e+01,        +3.541435213e+00,        -4.876236392e+01,        +1.078308641e+02
 6.600000000e+00,        -1.507654106e+01,        -1.669944243e+02,        -1.804465071e-01,        -7.773966908e+01,        -4.403316609e+01,        +3.038639805e+00,        -4.876147840e+01,        +1.067559296e+02
 6.700000000e+00,        -1.503544440e+01,        -1.681547954e+02,        -1.819188303e-01,        -7.889568614e+01,        -4.399731754e+01,        +2.529402911e+00,        -4.876036997e+01,        +1.056816043e+02
 6.800000000e+00,        -1.499791244e+01,        -1.693145547e+02,        -1.832811799e-01,        -8.005134585e+01,        -4.396361524e+01,        +2.014069312e+00,        -4.875903435e+01,        +1.046078405e+02
 6.900000000e+00,        -1.496391104e+01,        -1.704737420e+02,        -1.845315107e-01,        -8.120667719e+01,        -4.393206918e+01,        +1.492978816e+00,        -4.875746741e+01,        +1.035345899e+02
 7.000000000e+00,        -1.493340957e+01,        -1.716323973e+02,        -1.856679479e-01,        -8.236170962e+01,        -4.390268937e+01,        +9.664669512e-01,        -4.875566521e+01,        +1.024618035e+02
 7.100000000e+00,        -1.490638085e+01,        -1.727905605e+02,        -1.866887905e-01,        -8.351647308e+01,        -4.387548592e+01,        +4.348656630e-01,        -4.875362402e+01,        +1.013894316e+02
 7.200000000e+00,        -1.488280099e+01,        -1.739482714e+02,        -1.875925128e-01,        -8.467099787e+01,        -4.385046903e+01,        -1.014959847e-01,        -4.875134025e+01,        +1.003174237e+02
 7.300000000e+00,        -1.486264942e+01,        -1.751055696e+02,        -1.883777669e-01,        -8.582531469e+01,        -4.382764908e+01,        -6.422911067e-01,        -4.874881050e+01,        +9.924572907e+01
 7.400000000e+00,        -1.484590873e+01,        -1.762624948e+02,        -1.890433844e-01,        -8.697945452e+01,        -4.380703661e+01,        -1.187194287e+00,        -4.874603152e+01,        +9.817429627e+01
 7.500000000e+00,        -1.483256469e+01,        -1.774190863e+02,        -1.895883781e-01,        -8.813344866e+01,        -4.378864238e+01,        -1.735880864e+00,        -4.874300024e+01,        +9.710307355e+01
 7.600000000e+00,        -1.482260618e+01,        -1.785753837e+02,        -1.900119430e-01,        -8.928732859e+01,        -4.377247735e+01,        -2.288026205e+00,        -4.873971370e+01,        +9.603200878e+01
 7.700000000e+00,        -1.481602513e+01,        -1.797314260e+02,        -1.903134582e-01,        -9.044112601e+01,        -4.375855275e+01,        -2.843304977e+00,        -4.873616911e+01,        +9.496104949e+01
 7.800000000e+00,        -1.481281657e+01,        +1.791127477e+02,        -1.904924872e-01,        -9.159487275e+01,        -4.374688001e+01,        -3.401390400e+00,        -4.873236378e+01,        +9.389014296e+01
 7.900000000e+00,        -1.481297854e+01,        +1.779570985e+02,        -1.905487790e-01,        -9.274860074e+01,        -4.373747083e+01,        -3.961953488e+00,        -4.872829514e+01,        +9.281923620e+01
 8.000000000e+00,        -1.481651214e+01,        +1.768015877e+02,        -1.904822686e-01,        -9.390234196e+01,        -4.373033714e+01,        -4.524662282e+00,        -4.872396071e+01,        +9.174827600e+01
 8.100000000e+00,        -1.482342149e+01,        +1.756461769e+02,        -1.902930770e-01,        -9.505612838e+01,        -4.372549107e+01,        -5.089181055e+00,        -4.871935812e+01,        +9.067720893e+01
 8.200000000e+00,        -1.483371381e+01,        +1.744908280e+02,        -1.899815119e-01,        -9.620999197e+01,        -4.372294499e+01,        -5.655169510e+00,        -4.871448502e+01,        +8.960598135e+01
 8.300000000e+00,        -1.484739935e+01,        +1.733355030e+02,        -1.895480670e-01,        -9.736396457e+01,        -4.372271141e+01,        -6.222281947e+00,        -4.870933914e+01,        +8.853453939e+01
 8.400000000e+00,        -1.486449151e+01,        +1.721801643e+02,        -1.889934219e-01,        -9.851807794e+01,        -4.372480300e+01,        -6.790166416e+00,        -4.870391823e+01,        +8.746282888e+01
 8.500000000e+00,        -1.488500683e+01,        +1.710247747e+02,        -1.883184416e-01,        -9.967236362e+01,        -4.372923253e+01,        -7.358463840e+00,        -4.869822007e+01,        +8.639079536e+01
 8.600000000e+00,        -1.490896506e+01,        +1.698692972e+02,        -1.875241754e-01,        -1.008268530e+02,        -4.373601279e+01,        -7.926807116e+00,        -4.869224239e+01,        +8.531838400e+01
 8.700000000e+00,        -1.493638923e+01,        +1.687136954e+02,        -1.866118564e-01,        -1.019815770e+02,        -4.374515657e+01,        -8.494820188e+00,        -4.868598292e+01,        +8.424553946e+01
 8.800000000e+00,        -1.496730569e+01,        +1.675579332e+02,        -1.855828997e-01,        -1.031365666e+02,        -4.375667655e+01,        -9.062117094e+00,        -4.867943934e+01,        +8.317220582e+01
 8.900000000e+00,        -1.500174424e+01,        +1.664019748e+02,        -1.844389016e-01,        -1.042918521e+02,        -4.377058520e+01,        -9.628300990e+00,        -4.867260923e+01,        +8.209832643e+01
 9.000000000e+00,        -1.503973820e+01,        +1.652457850e+02,        -1.831816370e-01,        -1.054474635e+02,        -4.378689471e+01,        -1.019296314e+01,        -4.866549009e+01,        +8.102384371e+01
 9.100000000e+00,        -1.508132449e+01,        +1.640893293e+02,        -1.818130585e-01,        -1.066034304e+02,        -4.380561683e+01,        -1.075568190e+01,        -4.865807930e+01,        +7.994869898e+01
 9.200000000e+00,        -1.512654383e+01,        +1.629325734e+02,        -1.803352935e-01,        -1.077597818e+02,        -4.382676274e+01,        -1.131602163e+01,        -4.865037410e+01,        +7.887283217e+01
 9.300000000e+00,        -1.517544082e+01,        +1.617754837e+02,        -1.787506424e-01,        -1.089165464e+02,        -4.385034288e+01,        -1.187353172e+01,        -4.864237156e+01,        +7.779618154e+01
 9.400000000e+00,        -1.522806407e+01,        +1.606180272e+02,        -1.770615754e-01,        -1.100737520e+02,        -4.387636675e+01,        -1.242774540e+01,        -4.863406857e+01,        +7.671868335e+01
 9.500000000e+00,        -1.528446645e+01,        +1.594601714e+02,        -1.752707302e-01,        -1.112314261e+02,        -4.390484271e+01,        -1.297817880e+01,        -4.862546183e+01,        +7.564027148e+01
 9.600000000e+00,        -1.534470519e+01,        +1.583018845e+02,        -1.733809085e-01,        -1.123895952e+02,        -4.393577770e+01,        -1.352432983e+01,        -4.861654782e+01,        +7.456087695e+01
 9.700000000e+00,        -1.540884217e+01,        +1.571431354e+02,        -1.713950730e-01,        -1.135482853e+02,        -4.396917696e+01,        -1.406567720e+01,        -4.860732281e+01,        +7.348042741e+01
 9.800000000e+00,        -1.547694407e+01,        +1.559838936e+02,        -1.693163435e-01,        -1.147075218e+02,        -4.400504371e+01,        -1.460167946e+01,        -4.859778284e+01,        +7.239884657e+01
 9.900000000e+00,        -1.554908269e+01,        +1.548241294e+02,        -1.671479933e-01,        -1.158673288e+02,        -4.404337876e+01,        -1.513177422e+01,        -4.858792373e+01,        +7.131605354e+01
 1.000000000e+01,        -1.562533518e+01,        +1.536638137e+02,        -1.648934449e-01,        -1.170277302e+02,        -4.408418012e+01,        -1.565537734e+01,        -4.857774111e+01,        +7.023196211e+01
 1.010000000e+01,        -1.570578438e+01,        +1.525029183e+02,        -1.625562658e-01,        -1.181887484e+02,        -4.412744250e+01,        -1.617188249e+01,        -4.856723043e+01,        +6.914647986e+01
 1.020000000e+01,        -1.579051914e+01,        +1.513414155e+02,        -1.601401635e-01,        -1.193504053e+02,        -4.417315675e+01,        -1.668066083e+01,        -4.855638699e+01,        +6.805950734e+01
 1.030000000e+01,        -1.587963471e+01,        +1.501792789e+02,        -1.576489806e-01,        -1.205127216e+02,        -4.422130936e+01,        -1.718106105e+01,        -4.854520605e+01,        +6.697093699e+01
 1.040000000e+01,        -1.597323314e+01,        +1.490164823e+02,        -1.550866896e-01,        -1.216757173e+02,        -4.427188168e+01,        -1.767240983e+01,        -4.853368285e+01,        +6.588065207e+01
 1.050000000e+01,        -1.607142376e+01,        +1.478530010e+02,        -1.524573870e-01,        -1.228394108e+02,        -4.432484930e+01,        -1.815401282e+01,        -4.852181277e+01,        +6.478852547e+01
 1.060000000e+01,        -1.617432365e+01,        +1.466888106e+02,        -1.497652873e-01,        -1.240038200e+02,        -4.438018120e+01,        -1.862515627e+01,        -4.850959145e+01,        +6.369441844e+01
 1.070000000e+01,        -1.628205824e+01,        +1.455238882e+02,        -1.470147164e-01,        -1.251689613e+02,        -4.443783890e+01,        -1.908510947e+01,        -4.849701499e+01,        +6.259817928e+01
 1.080000000e+01,        -1.639476190e+01,        +1.443582113e+02,        -1.442101046e-01,        -1.263348501e+02,        -4.449777557e+01,        -1.953312814e+01,        -4.848408017e+01,        +6.149964191e+01
 1.090000000e+01,        -1.651257864e+01,        +1.431917588e+02,        -1.413559792e-01,        -1.275015004e+02,        -4.455993507e+01,        -1.996845908e+01,        -4.847078475e+01,        +6.039862450e+01
 1.100000000e+01,        -1.663566288e+01,        +1.420245106e+02,        -1.384569566e-01,        -1.286689251e+02,        -4.462425095e+01,        -2.039034620e+01,        -4.845712780e+01,        +5.929492812e+01
