         f (GHz),       Re{Φ_elec[1]} (C),       Im{Φ_elec[1]} (C),            Φ_pow[2] (W),            Φ_pow[3] (W),            Φ_pow[4] (W)
 2.000000000e+00,        +8.751380631e-13,        -2.165970176e-13,        +1.583791723e-05,        +9.858303488e-01,        +9.774648116e-01
 2.100000000e+00,        +8.711991241e-13,        -2.267198452e-13,        +1.743598728e-05,        +9.852966462e-01,        +9.769385017e-01
 2.200000000e+00,        +8.670926169e-13,        -2.367439235e-13,        +1.910693387e-05,        +9.847444816e-01,        +9.763939469e-01
 2.300000000e+00,        +8.628217926e-13,        -2.466656109e-13,        +2.085007087e-05,        +9.841748385e-01,        +9.758320685e-01
 2.400000000e+00,        +8.583899996e-13,        -2.564813969e-13,        +2.266468710e-05,        +9.835887272e-01,        +9.752538120e-01
 2.500000000e+00,        +8.538006771e-13,        -2.661879053e-13,        +2.455004686e-05,        +9.829871830e-01,        +9.746601451e-01
 2.600000000e+00,        +8.490573495e-13,        -2.757818968e-13,        +2.650539061e-05,        +9.823712634e-01,        +9.740520572e-01
 2.700000000e+00,        +8.441636197e-13,        -2.852602713e-13,        +2.852993557e-05,        +9.817420467e-01,        +9.734305570e-01
 2.800000000e+00,        +8.391231629e-13,        -2.946200695e-13,        +3.062287643e-05,        +9.811006297e-01,        +9.727966716e-01
 2.900000000e+00,        +8.339397199e-13,        -3.038584748e-13,        +3.278338596e-05,        +9.804481251e-01,        +9.721514444e-01
 3.000000000e+00,        +8.286170915e-13,        -3.129728144e-13,        +3.501061563e-05,        +9.797856596e-01,        +9.714959336e-01
 3.100000000e+00,        +8.231591310e-13,        -3.219605603e-13,        +3.730369633e-05,        +9.791143719e-01,        +9.708312101e-01
 3.200000000e+00,        +8.175697389e-13,        -3.308193300e-13,        +3.966173896e-05,        +9.784354100e-01,        +9.701583562e-01
 3.300000000e+00,        +8.118528560e-13,        -3.395468864e-13,        +4.208383506e-05,        +9.777499292e-01,        +9.694784634e-01
 3.400000000e+00,        +8.060124574e-13,        -3.481411382e-13,        +4.456905743e-05,        +9.770590900e-01,        +9.687926307e-01
 3.500000000e+00,        +8.000525464e-13,        -3.566001398e-13,        +4.711646072e-05,        +9.763640557e-01,        +9.681019627e-01
 3.600000000e+00,        +7.939771482e-13,        -3.649220902e-13,        +4.972508206e-05,        +9.756659902e-01,        +9.674075677e-01
 3.700000000e+00,        +7.877903043e-13,        -3.731053323e-13,        +5.239394156e-05,        +9.749660562e-01,        +9.667105562e-01
 3.800000000e+00,        +7.814960665e-13,        -3.811483522e-13,        +5.512204292e-05,        +9.742654126e-01,        +9.660120384e-01
 3.900000000e+00,        +7.750984911e-13,        -3.890497773e-13,        +5.790837385e-05,        +9.735652127e-01,        +9.653131231e-01
 4.000000000e+00,        +7.686016337e-13,        -3.968083750e-13,        +6.075190671e-05,        +9.728666020e-01,        +9.646149155e-01
 4.100000000e+00,        +7.620095436e-13,        -4.044230507e-13,        +6.365159889e-05,        +9.721707165e-01,        +9.639185157e-01
 4.200000000e+00,        +7.553262587e-13,        -4.118928461e-13,        +6.660639327e-05,        +9.714786803e-01,        +9.632250166e-01
 4.300000000e+00,        +7.485558003e-13,        -4.192169365e-13,        +6.961521870e-05,        +9.707916042e-01,        +9.625355026e-01
 4.400000000e+00,        +7.417021686e-13,        -4.263946286e-13,        +7.267699036e-05,        +9.701105834e-01,        +9.618510479e-01
 4.500000000e+00,        +7.347693377e-13,        -4.334253580e-13,        +7.579061018e-05,        +9.694366961e-01,        +9.611727147e-01
 4.600000000e+00,        +7.277612513e-13,        -4.403086861e-13,        +7.895496720e-05,        +9.687710014e-01,        +9.605015519e-01
 4.700000000e+00,        +7.206818183e-13,        -4.470442976e-13,        +8.216893788e-05,        +9.681145382e-01,        +9.598385932e-01
 4.800000000e+00,        +7.135349091e-13,        -4.536319972e-13,        +8.543138648e-05,        +9.674683230e-01,        +9.591848562e-01
 4.900000000e+00,        +7.063243511e-13,        -4.600717062e-13,        +8.874116536e-05,        +9.668333488e-01,        +9.585413404e-01
 5.000000000e+00,        +6.990539257e-13,        -4.663634599e-13,        +9.209711521e-05,        +9.662105837e-01,        +9.579090262e-01
 5.100000000e+00,        +6.917273646e-13,        -4.725074034e-13,        +9.549806544e-05,        +9.656009690e-01,        +9.572888735e-01
 5.200000000e+00,        +6.843483462e-13,        -4.785037888e-13,        +9.894283437e-05,        +9.650054187e-01,        +9.566818204e-01
 5.300000000e+00,        +6.769204933e-13,        -4.843529712e-13,        +1.024302295e-04,        +9.644248175e-01,        +9.560887820e-01
 5.400000000e+00,        +6.694473694e-13,        -4.900554054e-13,        +1.059590479e-04,        +9.638600202e-01,        +9.555106491e-01
 5.500000000e+00,        +6.619324769e-13,        -4.956116421e-13,        +1.095280762e-04,        +9.633118504e-01,        +9.549482871e-01
 5.600000000e+00,        +6.543792539e-13,        -5.010223243e-13,        +1.131360912e-04,        +9.627810996e-01,        +9.544025354e-01
 5.700000000e+00,        +6.467910727e-13,        -5.062881834e-13,        +1.167818598e-04,        +9.622685262e-01,        +9.538742055e-01
 5.800000000e+00,        +6.391712370e-13,        -5.114100358e-13,        +1.204641397e-04,        +9.617748544e-01,        +9.533640808e-01
 5.900000000e+00,        +6.315229807e-13,        -5.163887788e-13,        +1.241816791e-04,        +9.613007742e-01,        +9.528729151e-01
 6.000000000e+00,        +6.238494657e-13,        -5.212253871e-13,        +1.279332178e-04,        +9.608469398e-01,        +9.524014323e-01
 6.100000000e+00,        +6.161537808e-13,        -5.259209090e-13,        +1.317174867e-04,        +9.604139697e-01,        +9.519503248e-01
 6.200000000e+00,        +6.084389402e-13,        -5.304764625e-13,        +1.355332090e-04,        +9.600024456e-01,        +9.515202535e-01
 6.300000000e+00,        +6.007078822e-13,        -5.348932319e-13,        +1.393791000e-04,        +9.596129122e-01,        +9.511118464e-01
 6.400000000e+00,        +5.929634687e-13,        -5.391724641e-13,        +1.432538678e-04,        +9.592458771e-01,        +9.507256981e-01
 6.500000000e+00,        +5.852084836e-13,        -5.433154645e-13,        +1.471562141e-04,        +9.589018097e-01,        +9.503623694e-01
 6.600000000e+00,        +5.774456329e-13,        -5.473235941e-13,        +1.510848340e-04,        +9.585811417e-01,        +9.500223862e-01
 6.700000000e+00,        +5.696775438e-13,        -5.511982655e-13,        +1.550384177e-04,        +9.582842665e-01,        +9.497062392e-01
 6.800000000e+00,        +5.619067640e-13,        -5.549409396e-13,        +1.590156501e-04,        +9.580115391e-01,        +9.494143830e-01
 6.900000000e+00,        +5.541357622e-13,        -5.585531220e-13,        +1.630152127e-04,        +9.577632764e-01,        +9.491472362e-01
 7.000000000e+00,        +5.463669271e-13,        -5.620363598e-13,        +1.670357833e-04,        +9.575397567e-01,        +9.489051802e-01
 7.100000000e+00,        +5.386025682e-13,        -5.653922382e-13,        +1.710760382e-04,        +9.573412202e-01,        +9.486885591e-01
 7.200000000e+00,        +5.308449153e-13,        -5.686223772e-13,        +1.751346523e-04,        +9.571678688e-01,        +9.484976794e-01
 7.300000000e+00,        +5.230961190e-13,        -5.717284285e-13,        +1.792103007e-04,        +9.570198669e-01,        +9.483328091e-01
 7.400000000e+00,        +5.153582507e-13,        -5.747120725e-13,        +1.833016603e-04,        +9.568973409e-01,        +9.481941780e-01
 7.500000000e+00,        +5.076333037e-13,        -5.775750149e-13,        +1.874074107e-04,        +9.568003803e-01,        +9.480819766e-01
 7.600000000e+00,        +4.999231928e-13,        -5.803189842e-13,        +1.915262361e-04,        +9.567290375e-01,        +9.479963565e-01
 7.700000000e+00,        +4.922297556e-13,        -5.829457284e-13,        +1.956568272e-04,        +9.566833288e-01,        +9.479374297e-01
 7.800000000e+00,        +4.845547528e-13,        -5.854570124e-13,        +1.997978827e-04,        +9.566632345e-01,        +9.479052685e-01
 7.900000000e+00,        +4.768998690e-13,        -5.878546153e-13,        +2.039481120e-04,        +9.566687001e-01,        +9.478999052e-01
 8.000000000e+00,        +4.692667137e-13,        -5.901403273e-13,        +2.081062367e-04,        +9.566996362e-01,        +9.479213319e-01
 8.100000000e+00,        +4.616568220e-13,        -5.923159479e-13,        +2.122709940e-04,        +9.567559202e-01,        +9.479695003e-01
 8.200000000e+00,        +4.540716553e-13,        -5.943832824e-13,        +2.164411386e-04,        +9.568373962e-01,        +9.480443216e-01
 8.300000000e+00,        +4.465126030e-13,        -5.963441402e-13,        +2.206154459e-04,        +9.569438768e-01,        +9.481456666e-01
 8.400000000e+00,        +4.389809829e-13,        -5.982003320e-13,        +2.247927152e-04,        +9.570751433e-01,        +9.482733650e-01
 8.500000000e+00,        +4.314780425e-13,        -5.999536675e-13,        +2.289717730e-04,        +9.572309476e-01,        +9.484272059e-01
 8.600000000e+00,        +4.240049603e-13,        -6.016059535e-13,        +2.331514763e-04,        +9.574110127e-01,        +9.486069375e-01
 8.700000000e+00,        +4.165628468e-13,        -6.031589910e-13,        +2.373307169e-04,        +9.576150343e-01,        +9.488122672e-01
 8.800000000e+00,        +4.091527459e-13,        -6.046145735e-13,        +2.415084248e-04,        +9.578426822e-01,        +9.490428613e-01
 8.900000000e+00,        +4.017756361e-13,        -6.059744851e-13,        +2.456835730e-04,        +9.580936017e-01,        +9.492983454e-01
 9.000000000e+00,        +3.944324318e-13,        -6.072404979e-13,        +2.498551815e-04,        +9.583674152e-01,        +9.495783043e-01
 9.100000000e+00,        +3.871239846e-13,        -6.084143702e-13,        +2.540223221e-04,        +9.586637242e-01,        +9.498822820e-01
 9.200000000e+00,        +3.798510849e-13,        -6.094978449e-13,        +2.581841231e-04,        +9.589821108e-01,        +9.502097819e-01
 9.300000000e+00,        +3.726144635e-13,        -6.104926468e-13,        +2.623397743e-04,        +9.593221398e-01,        +9.505602670e-01
 9.400000000e+00,        +3.654147924e-13,        -6.114004816e-13,        +2.664885314e-04,        +9.596833614e-01,        +9.509331601e-01
 9.500000000e+00,        +3.582526873e-13,        -6.122230334e-13,        +2.706297211e-04,        +9.600653127e-01,        +9.513278438e-01
 9.600000000e+00,        +3.511287082e-13,        -6.129619630e-13,        +2.747627460e-04,        +9.604675210e-01,        +9.517436610e-01
 9.700000000e+00,        +3.440433621e-13,        -6.136189063e-13,        +2.788870882e-04,        +9.608895060e-01,        +9.521799153e-01
 9.800000000e+00,        +3.369971039e-13,        -6.141954721e-13,        +2.830023138e-04,        +9.613307830e-01,        +9.526358711e-01
 9.900000000e+00,        +3.299903386e-13,        -6.146932409e-13,        +2.871080756e-04,        +9.617908661e-01,        +9.531107544e-01
 1.000000000e+01,        +3.230234233e-13,        -6.151137627e-13,        +2.912041155e-04,        +9.622692713e-01,        +9.536037530e-01
 1.010000000e+01,        +3.160966689e-13,        -6.154585551e-13,        +2.952902652e-04,        +9.627655200e-01,        +9.541140174e-01
 1.020000000e+01,        +3.092103425e-13,        -6.157291022e-13,        +2.993664451e-04,        +9.632791432e-01,        +9.546406617e-01
 1.030000000e+01,        +3.023646696e-13,        -6.159268524e-13,        +3.034326612e-04,        +9.638096850e-01,        +9.551827639e-01
 1.040000000e+01,        +2.955598365e-13,        -6.160532167e-13,        +3.074889989e-04,        +9.643567068e-01,        +9.557393679e-01
 1.050000000e+01,        +2.887959931e-13,        -6.161095675e-13,        +3.115356135e-04,        +9.649197917e-01,        +9.563094838e-01
 1.060000000e+01,        +2.820732556e-13,        -6.160972366e-13,        +3.155727151e-04,        +9.654985484e-01,        +9.568920905e-01
 1.070000000e+01,        +2.753917098e-13,        -6.160175139e-13,        +3.196005496e-04,        +9.660926159e-01,        +9.574861365e-01
 1.080000000e+01,        +2.687514143e-13,        -6.158716460e-13,        +3.236193713e-04,        +9.667016672e-01,        +9.580905430e-01
 1.090000000e+01,        +2.621524044e-13,        -6.156608350e-13,        +3.276294078e-04,        +9.673254128e-01,        +9.587042061e-01
 1.100000000e+01,        +2.555946960e-13,        -6.153862377e-13,        +3.316308157e-04,        +9.679636044e-01,        +9.593260000e-01
 1.110000000e+01,        +2.490782905e-13,        -6.150489648e-13,        +3.356236236e-04,        +9.686160365e-01,        +9.599547810e-01
 1.120000000e+01,        +2.426031792e-13,        -6.146500806e-13,        +3.396076628e-04,        +9.692825481e-01,        +9.605893915e-01
 1.130000000e+01,        +2.361693487e-13,        -6.141906036e-13,        +3.435824814e-04,        +9.699630213e-01,        +9.612286661e-01
 1.140000000e+01,        +2.297767870e-13,        -6.136715071e-13,        +3.475472426e-04,        +9.706573791e-01,        +9.618714370e-01
 1.150000000e+01,        +2.234254889e-13,        -6.130937212e-13,        +3.515006027e-04,        +9.713655792e-01,        +9.625165419e-01
 1.160000000e+01,        +2.171154630e-13,        -6.124581357e-13,        +3.554405709e-04,        +9.720876049e-01,        +9.631628319e-01
 1.170000000e+01,        +2.108467378e-13,        -6.117656039e-13,        +3.593643476e-04,        +9.728234511e-01,        +9.638091814e-01
 1.180000000e+01,        +2.046193683e-13,        -6.110169483e-13,        +3.632681446e-04,        +9.735731056e-01,        +9.644544985e-01
 1.190000000e+01,        +1.984334423e-13,        -6.102129676e-13,        +3.671469887e-04,        +9.743365235e-01,        +9.650977371e-01
 1.200000000e+01,        +1.922890853e-13,        -6.093544460e-13,        +3.709945150e-04,        +9.751135951e-01,        +9.657379094e-01
 1.210000000e+01,        +1.861864651e-13,        -6.084421636e-13,        +3.748027581e-04,        +9.759041068e-01,        +9.663740994e-01
 1.220000000e+01,        +1.801257943e-13,        -6.074769097e-13,        +3.785619538e-04,        +9.767076932e-01,        +9.670054760e-01
 1.230000000e+01,        +1.741073294e-13,        -6.064594969e-13,        +3.822603670e-04,        +9.775237834e-01,        +9.676313056e-01
 1.240000000e+01,        +1.681314020e-13,        -6.053907409e-13,        +3.858838189e-04,        +9.783514781e-01,        +9.682510862e-01
 1.250000000e+01,        +1.621982783e-13,        -6.042716221e-13,        +3.894169964e-04,        +9.791897245e-01,        +9.688640733e-01
 1.260000000e+01,        +1.563083423e-13,        -6.031030862e-13,        +3.928415175e-04,        +9.800369090e-01,        +9.694699922e-01
 1.270000000e+01,        +1.504619507e-13,        -6.018862016e-13,        +3.961373942e-04,        +9.808910185e-01,        +9.700685730e-01
 1.280000000e+01,        +1.446594419e-13,        -6.006221354e-13,        +3.992830480e-04,        +9.817495389e-01,        +9.706596553e-01
 1.290000000e+01,        +1.389011091e-13,        -5.993121607e-13,        +4.022558056e-04,        +9.826094246e-01,        +9.712431703e-01
 1.300000000e+01,        +1.331871697e-13,        -5.979576555e-13,        +4.050325641e-04,        +9.834670932e-01,        +9.718191157e-01
 1.310000000e+01,        +1.275177323e-13,        -5.965600953e-13,        +4.075906118e-04,        +9.843184503e-01,        +9.723875208e-01
 1.320000000e+01,        +1.218927655e-13,        -5.951210348e-13,        +4.099085665e-04,        +9.851589509e-01,        +9.729484052e-01
 1.330000000e+01,        +1.163120697e-13,        -5.936420811e-13,        +4.119673759e-04,        +9.859836971e-01,        +9.735017325e-01
 1.340000000e+01,        +1.107752555e-13,        -5.921248577e-13,        +4.137513002e-04,        +9.867875707e-01,        +9.740473630e-01
 1.350000000e+01,        +1.052817317e-13,        -5.905709627e-13,        +4.152487948e-04,        +9.875653930e-01,        +9.745850089e-01
 1.360000000e+01,        +9.983070573e-14,        -5.889819224e-13,        +4.164532029e-04,        +9.883121014e-01,        +9.751141963e-01
 1.370000000e+01,        +9.442119525e-14,        -5.873591464e-13,        +4.173631876e-04,        +9.890229290e-01,        +9.756342393e-01
 1.380000000e+01,        +8.905205298e-14,        -5.857038862e-13,        +4.179828550e-04,        +9.896935708e-01,        +9.761442268e-01
 1.390000000e+01,        +8.372200139e-14,        -5.840172015e-13,        +4.183215551e-04,        +9.903203242e-01,        +9.766430254e-01
 1.400000000e+01,        +7.842967474e-14,        -5.822999374e-13,        +4.183933807e-04,        +9.909001908e-01,        +9.771292972e-01
 1.410000000e+01,        +7.317366486e-14,        -5.805527134e-13,        +4.182164206e-04,        +9.914309348e-01,        +9.776015302e-01
 1.420000000e+01,        +6.795256662e-14,        -5.787759247e-13,        +4.178118423e-04,        +9.919110941e-01,        +9.780580795e-01
 1.430000000e+01,        +6.276501986e-14,        -5.769697546e-13,        +4.172028933e-04,        +9.923399497e-01,        +9.784972132e-01
 1.440000000e+01,        +5.760974485e-14,        -5.751341950e-13,        +4.164139062e-04,        +9.927174602e-01,        +9.789171612e-01
 1.450000000e+01,        +5.248556977e-14,        -5.732690743e-13,        +4.154693804e-04,        +9.930441697e-01,        +9.793161613e-01
 1.460000000e+01,        +4.739144946e-14,        -5.713740873e-13,        +4.143931926e-04,        +9.933211026e-01,        +9.796925006e-01
 1.470000000e+01,        +4.232647580e-14,        -5.694488267e-13,        +4.132079741e-04,        +9.935496519e-01,        +9.800445505e-01
 1.480000000e+01,        +3.728988048e-14,        -5.674928120e-13,        +4.119346558e-04,        +9.937314722e-01,        +9.803707935e-01
 1.490000000e+01,        +3.228103204e-14,        -5.655055175e-13,        +4.105921822e-04,        +9.938683818e-01,        +9.806698424e-01
 1.500000000e+01,        +2.729942798e-14,        -5.634863943e-13,        +4.091973728e-04,        +9.939622788e-01,        +9.809404524e-01
 1.510000000e+01,        +2.234468408e-14,        -5.614348887e-13,        +4.077649058e-04,        +9.940150724e-01,        +9.811815268e-01
 1.520000000e+01,        +1.741652202e-14,        -5.593504568e-13,        +4.063073961e-04,        +9.940286301e-01,        +9.813921172e-01
 1.530000000e+01,        +1.251475642e-14,        -5.572325744e-13,        +4.048355398e-04,        +9.940047398e-01,        +9.815714211e-01
 1.540000000e+01,        +7.639282129e-15,        -5.550807442e-13,        +4.033583011e-04,        +9.939450847e-01,        +9.817187753e-01
 1.550000000e+01,        +2.790062383e-15,        -5.528944995e-13,        +4.018831216e-04,        +9.938512293e-01,        +9.818336487e-01
 1.560000000e+01,        -2.032881861e-15,        -5.506734062e-13,        +4.004161355e-04,        +9.937246138e-01,        +9.819156335e-01
 1.570000000e+01,        -6.829481228e-15,        -5.484170628e-13,        +3.989623792e-04,        +9.935665554e-01,        +9.819644369e-01
 1.580000000e+01,        -1.159962582e-14,        -5.461250994e-13,        +3.975259886e-04,        +9.933782547e-01,        +9.819798719e-01
