         f (GHz),       Re{Φ_elec[1]} (C),       Im{Φ_elec[1]} (C),            Φ_pow[2] (W),            Φ_pow[3] (W),            Φ_pow[4] (W)
 2.000000000e+00,        +8.745808906e-13,        -2.164684373e-13,        +1.583297976e-05,        +9.858041648e-01,        +9.774472829e-01
 2.100000000e+00,        +8.706441226e-13,        -2.265851612e-13,        +1.743054481e-05,        +9.852702068e-01,        +9.769207140e-01
 2.200000000e+00,        +8.665398834e-13,        -2.366031824e-13,        +1.910096495e-05,        +9.847177781e-01,        +9.763758916e-01
 2.300000000e+00,        +8.622714231e-13,        -2.465188609e-13,        +2.084355444e-05,        +9.841478628e-01,        +9.758137375e-01
 2.400000000e+00,        +8.578420885e-13,        -2.563286882e-13,        +2.265760251e-05,        +9.835614716e-01,        +9.752351973e-01
 2.500000000e+00,        +8.532553179e-13,        -2.660292902e-13,        +2.454237386e-05,        +9.829596403e-01,        +9.746412397e-01
 2.600000000e+00,        +8.485146340e-13,        -2.756174291e-13,        +2.649710942e-05,        +9.823434269e-01,        +9.740328543e-01
 2.700000000e+00,        +8.436236385e-13,        -2.850900068e-13,        +2.852102685e-05,        +9.817139104e-01,        +9.734110506e-01
 2.800000000e+00,        +8.385860051e-13,        -2.944440656e-13,        +3.061332128e-05,        +9.810721879e-01,        +9.727768559e-01
 2.900000000e+00,        +8.334054731e-13,        -3.036767906e-13,        +3.277316595e-05,        +9.804193728e-01,        +9.721313144e-01
 3.000000000e+00,        +8.280858418e-13,        -3.127855108e-13,        +3.499971284e-05,        +9.797565924e-01,        +9.714754846e-01
 3.100000000e+00,        +8.226309629e-13,        -3.217676996e-13,        +3.729209332e-05,        +9.790849858e-01,        +9.708104382e-01
 3.200000000e+00,        +8.170447354e-13,        -3.306209760e-13,        +3.964941882e-05,        +9.784057016e-01,        +9.701372579e-01
 3.300000000e+00,        +8.113310985e-13,        -3.393431045e-13,        +4.207078137e-05,        +9.777198958e-01,        +9.694570359e-01
 3.400000000e+00,        +8.054940255e-13,        -3.479319955e-13,        +4.455525433e-05,        +9.770287293e-01,        +9.687708717e-01
 3.500000000e+00,        +7.995375181e-13,        -3.563857044e-13,        +4.710189289e-05,        +9.763333660e-01,        +9.680798704e-01
 3.600000000e+00,        +7.934655998e-13,        -3.647024317e-13,        +4.970973475e-05,        +9.756349705e-01,        +9.673851411e-01
 3.700000000e+00,        +7.872823103e-13,        -3.728805217e-13,        +5.237780057e-05,        +9.749347059e-01,        +9.666877944e-01
 3.800000000e+00,        +7.809916996e-13,        -3.809184616e-13,        +5.510509460e-05,        +9.742337317e-01,        +9.659889415e-01
 3.900000000e+00,        +7.745978224e-13,        -3.888148800e-13,        +5.789060520e-05,        +9.735332018e-01,        +9.652896915e-01
 4.000000000e+00,        +7.681047323e-13,        -3.965685456e-13,        +6.073330526e-05,        +9.728342623e-01,        +9.645911504e-01
 4.100000000e+00,        +7.615164768e-13,        -4.041783647e-13,        +6.363215281e-05,        +9.721380495e-01,        +9.638944184e-01
 4.200000000e+00,        +7.548370919e-13,        -4.116433802e-13,        +6.658609133e-05,        +9.714456884e-01,        +9.632005894e-01
 4.300000000e+00,        +7.480705973e-13,        -4.189627682e-13,        +6.959405027e-05,        +9.707582900e-01,        +9.625107481e-01
 4.400000000e+00,        +7.412209910e-13,        -4.261358364e-13,        +7.265494546e-05,        +9.700769501e-01,        +9.618259692e-01
 4.500000000e+00,        +7.342922453e-13,        -4.331620213e-13,        +7.576767944e-05,        +9.694027475e-01,        +9.611473155e-01
 4.600000000e+00,        +7.272883021e-13,        -4.400408851e-13,        +7.893114188e-05,        +9.687367418e-01,        +9.604758364e-01
 4.700000000e+00,        +7.202130683e-13,        -4.467721133e-13,        +8.214420989e-05,        +9.680799723e-01,        +9.598125660e-01
 4.800000000e+00,        +7.130704123e-13,        -4.533555111e-13,        +8.540574837e-05,        +9.674334560e-01,        +9.591585224e-01
 4.900000000e+00,        +7.058641599e-13,        -4.597910008e-13,        +8.871461029e-05,        +9.667981865e-01,        +9.585147055e-01
 5.000000000e+00,        +6.985980903e-13,        -4.660786180e-13,        +9.206963703e-05,        +9.661751321e-01,        +9.578820964e-01
 5.100000000e+00,        +6.912759332e-13,        -4.722185085e-13,        +9.546965861e-05,        +9.655652348e-01,        +9.572616552e-01
 5.200000000e+00,        +6.839013654e-13,        -4.782109247e-13,        +9.891349401e-05,        +9.649694087e-01,        +9.566543205e-01
 5.300000000e+00,        +6.764780075e-13,        -4.840562224e-13,        +1.023999514e-04,        +9.643885393e-01,        +9.560610078e-01
 5.400000000e+00,        +6.690094212e-13,        -4.897548567e-13,        +1.059278284e-04,        +9.638234815e-01,        +9.554826082e-01
 5.500000000e+00,        +6.614991070e-13,        -4.953073785e-13,        +1.094959124e-04,        +9.632750595e-01,        +9.549199877e-01
 5.600000000e+00,        +6.539505011e-13,        -5.007144312e-13,        +1.131029808e-04,        +9.627440649e-01,        +9.543739858e-01
 5.700000000e+00,        +6.463669738e-13,        -5.059767465e-13,        +1.167478012e-04,        +9.622312565e-01,        +9.538454145e-01
 5.800000000e+00,        +6.387518271e-13,        -5.110951409e-13,        +1.204291317e-04,        +9.617373591e-01,        +9.533350575e-01
 5.900000000e+00,        +6.311082928e-13,        -5.160705119e-13,        +1.241457214e-04,        +9.612630628e-01,        +9.528436689e-01
 6.000000000e+00,        +6.234395312e-13,        -5.209038342e-13,        +1.278963105e-04,        +9.608090221e-01,        +9.523719729e-01
 6.100000000e+00,        +6.157486291e-13,        -5.255961562e-13,        +1.316796308e-04,        +9.603758558e-01,        +9.519206622e-01
 6.200000000e+00,        +6.080385989e-13,        -5.301485959e-13,        +1.354944059e-04,        +9.599641459e-01,        +9.514903979e-01
 6.300000000e+00,        +6.003123772e-13,        -5.345623376e-13,        +1.393393517e-04,        +9.595744374e-01,        +9.510818083e-01
 6.400000000e+00,        +5.925728239e-13,        -5.388386280e-13,        +1.432131771e-04,        +9.592072378e-01,        +9.506954883e-01
 6.500000000e+00,        +5.848227214e-13,        -5.429787726e-13,        +1.471145841e-04,        +9.588630171e-01,        +9.503319986e-01
 6.600000000e+00,        +5.770647737e-13,        -5.469841321e-13,        +1.510422687e-04,        +9.585422071e-01,        +9.499918656e-01
 6.700000000e+00,        +5.693016064e-13,        -5.508561189e-13,        +1.549949214e-04,        +9.582452012e-01,        +9.496755799e-01
 6.800000000e+00,        +5.615357655e-13,        -5.545961937e-13,        +1.589712280e-04,        +9.579723547e-01,        +9.493835965e-01
 6.900000000e+00,        +5.537697180e-13,        -5.582058619e-13,        +1.629698702e-04,        +9.577239846e-01,        +9.491163339e-01
 7.000000000e+00,        +5.460058510e-13,        -5.616866701e-13,        +1.669895267e-04,        +9.575003693e-01,        +9.488741737e-01
 7.100000000e+00,        +5.382464723e-13,        -5.650402033e-13,        +1.710288741e-04,        +9.573017491e-01,        +9.486574601e-01
 7.200000000e+00,        +5.304938101e-13,        -5.682680812e-13,        +1.750865880e-04,        +9.571283261e-01,        +9.484664996e-01
 7.300000000e+00,        +5.227500188e-13,        -5.713719207e-13,        +1.791615317e-04,        +9.569802907e-01,        +9.483016063e-01
 7.400000000e+00,        +5.150171586e-13,        -5.743534660e-13,        +1.832520268e-04,        +9.568577202e-01,        +9.481629247e-01
 7.500000000e+00,        +5.072972256e-13,        -5.772143922e-13,        +1.873569231e-04,        +9.567607275e-01,        +9.480506855e-01
 7.600000000e+00,        +4.995921332e-13,        -5.799564269e-13,        +1.914749054e-04,        +9.566893650e-01,        +9.479650403e-01
 7.700000000e+00,        +4.919037176e-13,        -5.825813178e-13,        +1.956046648e-04,        +9.566436489e-01,        +9.479061012e-01
 7.800000000e+00,        +4.842337381e-13,        -5.850908293e-13,        +1.997449009e-04,        +9.566235598e-01,        +9.478739404e-01
 7.900000000e+00,        +4.765838778e-13,        -5.874867396e-13,        +2.038943234e-04,        +9.566290428e-01,        +9.478685902e-01
 8.000000000e+00,        +4.689557450e-13,        -5.897708386e-13,        +2.080516546e-04,        +9.566600087e-01,        +9.478900427e-01
 8.100000000e+00,        +4.613508732e-13,        -5.919449249e-13,        +2.122156320e-04,        +9.567163346e-01,        +9.479382497e-01
 8.200000000e+00,        +4.537707228e-13,        -5.940108034e-13,        +2.163850111e-04,        +9.567978648e-01,        +9.480131224e-01
 8.300000000e+00,        +4.462166817e-13,        -5.959702826e-13,        +2.205585676e-04,        +9.569044116e-01,        +9.481145312e-01
 8.400000000e+00,        +4.386900666e-13,        -5.978251727e-13,        +2.247351015e-04,        +9.570357563e-01,        +9.482423061e-01
 8.500000000e+00,        +4.311921237e-13,        -5.995772826e-13,        +2.289134397e-04,        +9.571916505e-01,        +9.483962359e-01
 8.600000000e+00,        +4.237240304e-13,        -6.012284183e-13,        +2.330924397e-04,        +9.573718172e-01,        +9.485760688e-01
 8.700000000e+00,        +4.162868961e-13,        -6.027803802e-13,        +2.372709938e-04,        +9.575759518e-01,        +9.487815120e-01
 8.800000000e+00,        +4.088817633e-13,        -6.042349611e-13,        +2.414480324e-04,        +9.578037241e-01,        +9.490122318e-01
 8.900000000e+00,        +4.015096097e-13,        -6.055939441e-13,        +2.456225290e-04,        +9.580547790e-01,        +9.492678534e-01
 9.000000000e+00,        +3.941713484e-13,        -6.068591007e-13,        +2.497935041e-04,        +9.583287388e-01,        +9.495479617e-01
 9.100000000e+00,        +3.868678302e-13,        -6.080321884e-13,        +2.539600299e-04,        +9.586252046e-01,        +9.498521003e-01
 9.200000000e+00,        +3.795998444e-13,        -6.091149491e-13,        +2.581212352e-04,        +9.589437584e-01,        +9.501797726e-01
 9.300000000e+00,        +3.723681207e-13,        -6.101091072e-13,        +2.622763101e-04,        +9.592839649e-01,        +9.505304412e-01
 9.400000000e+00,        +3.651733303e-13,        -6.110163673e-13,        +2.664245109e-04,        +9.596453736e-01,        +9.509035287e-01
 9.500000000e+00,        +3.580160879e-13,        -6.118384127e-13,        +2.705651647e-04,        +9.600275216e-01,        +9.512984176e-01
 9.600000000e+00,        +3.508969527e-13,        -6.125769034e-13,        +2.746976743e-04,        +9.604299357e-01,        +9.517144504e-01
 9.700000000e+00,        +3.438164307e-13,        -6.132334745e-13,        +2.788215225e-04,        +9.608521355e-01,        +9.521509305e-01
 9.800000000e+00,        +3.367749760e-13,        -6.138097341e-13,        +2.829362757e-04,        +9.612936359e-01,        +9.526071219e-01
 9.900000000e+00,        +3.297729928e-13,        -6.143072616e-13,        +2.870415871e-04,        +9.617539505e-01,        +9.530822503e-01
 1.000000000e+01,        +3.228108374e-13,        -6.147276062e-13,        +2.911371992e-04,        +9.622325950e-01,        +9.535755033e-01
 1.010000000e+01,        +3.158888199e-13,        -6.150722849e-13,        +2.952229440e-04,        +9.627290905e-01,        +9.540860309e-01
 1.020000000e+01,        +3.090072066e-13,        -6.153427808e-13,        +2.992987423e-04,        +9.632429675e-01,        +9.546129469e-01
 1.030000000e+01,        +3.021662224e-13,        -6.155405413e-13,        +3.033646006e-04,        +9.637737698e-01,        +9.551553290e-01
 1.040000000e+01,        +2.953660529e-13,        -6.156669768e-13,        +3.074206050e-04,        +9.643210583e-01,        +9.557122205e-01
 1.050000000e+01,        +2.886068473e-13,        -6.157234587e-13,        +3.114669109e-04,        +9.648844157e-01,        +9.562826313e-01
 1.060000000e+01,        +2.818887210e-13,        -6.157113179e-13,        +3.155037293e-04,        +9.654634504e-01,        +9.568655396e-01
 1.070000000e+01,        +2.752117593e-13,        -6.156318436e-13,        +3.195313065e-04,        +9.660578008e-01,        +9.574598938e-01
 1.080000000e+01,        +2.685760202e-13,        -6.154862814e-13,        +3.235498973e-04,        +9.666671394e-01,        +9.580646144e-01
 1.090000000e+01,        +2.619815382e-13,        -6.152758326e-13,        +3.275597301e-04,        +9.672911765e-01,        +9.586785971e-01
 1.100000000e+01,        +2.554283290e-13,        -6.150016532e-13,        +3.315609620e-04,        +9.679296631e-01,        +9.593007155e-01
 1.110000000e+01,        +2.489163932e-13,        -6.146648528e-13,        +3.355536225e-04,        +9.685823935e-01,        +9.599298254e-01
 1.120000000e+01,        +2.424457215e-13,        -6.142664951e-13,        +3.395375435e-04,        +9.692492059e-01,        +9.605647687e-01
 1.130000000e+01,        +2.360163002e-13,        -6.138075976e-13,        +3.435122739e-04,        +9.699299823e-01,        +9.612043794e-01
 1.140000000e+01,        +2.296281166e-13,        -6.132891327e-13,        +3.474769778e-04,        +9.706246449e-01,        +9.618474892e-01
 1.150000000e+01,        +2.232811652e-13,        -6.127120297e-13,        +3.514303126e-04,        +9.713331512e-01,        +9.624929351e-01
 1.160000000e+01,        +2.169754541e-13,        -6.120771774e-13,        +3.553702882e-04,        +9.720554838e-01,        +9.631395675e-01
 1.170000000e+01,        +2.107110114e-13,        -6.113854283e-13,        +3.592941063e-04,        +9.727916375e-01,        +9.637862602e-01
 1.180000000e+01,        +2.044878918e-13,        -6.106376039e-13,        +3.631979795e-04,        +9.735415994e-01,        +9.644319206e-01
 1.190000000e+01,        +1.983061825e-13,        -6.098345023e-13,        +3.670769358e-04,        +9.743053242e-01,        +9.650755020e-01
 1.200000000e+01,        +1.921660088e-13,        -6.089769064e-13,        +3.709246115e-04,        +9.750827020e-01,        +9.657160158e-01
 1.210000000e+01,        +1.860675384e-13,        -6.080655956e-13,        +3.747330422e-04,        +9.758735187e-01,        +9.663525452e-01
 1.220000000e+01,        +1.800109833e-13,        -6.071013582e-13,        +3.784924646e-04,        +9.766774086e-01,        +9.669842584e-01
 1.230000000e+01,        +1.739966001e-13,        -6.060850062e-13,        +3.821911446e-04,        +9.774938004e-01,        +9.676104209e-01
 1.240000000e+01,        +1.680246862e-13,        -6.050173907e-13,        +3.858152547e-04,        +9.783218568e-01,        +9.682304072e-01
 1.250000000e+01,        +1.620955729e-13,        -6.038994196e-13,        +3.893488198e-04,        +9.791604107e-01,        +9.688437076e-01
 1.260000000e+01,        +1.562096126e-13,        -6.027320729e-13,        +3.927737708e-04,        +9.800079016e-01,        +9.694499332e-01
 1.270000000e+01,        +1.503671621e-13,        -6.015164181e-13,        +3.960701187e-04,        +9.808623161e-01,        +9.700488135e-01
 1.280000000e+01,        +1.445685599e-13,        -6.002536215e-13,        +3.992162831e-04,        +9.817211401e-01,        +9.706401870e-01
 1.290000000e+01,        +1.388140992e-13,        -5.989449555e-13,        +4.021895878e-04,        +9.825813280e-01,        +9.712239846e-01
 1.300000000e+01,        +1.331039974e-13,        -5.975917974e-13,        +4.049669260e-04,        +9.834392972e-01,        +9.718002032e-01
 1.310000000e+01,        +1.274383633e-13,        -5.961956221e-13,        +4.075255810e-04,        +9.842909531e-01,        +9.723688718e-01
 1.320000000e+01,        +1.218171659e-13,        -5.947579838e-13,        +4.098441644e-04,        +9.851317507e-01,        +9.729300095e-01
 1.330000000e+01,        +1.162402054e-13,        -5.932804891e-13,        +4.119036165e-04,        +9.859567915e-01,        +9.734835797e-01
 1.340000000e+01,        +1.107070926e-13,        -5.917647611e-13,        +4.136881895e-04,        +9.867609568e-01,        +9.740294426e-01
 1.350000000e+01,        +1.052172367e-13,        -5.902123976e-13,        +4.151863295e-04,        +9.875390674e-01,        +9.745673103e-01
 1.360000000e+01,        +9.976984487e-14,        -5.886249247e-13,        +4.163913703e-04,        +9.882860598e-01,        +9.750967091e-01
 1.370000000e+01,        +9.436393491e-14,        -5.870037520e-13,        +4.173019655e-04,        +9.889971661e-01,        +9.756169531e-01
 1.380000000e+01,        +8.899835943e-14,        -5.853501306e-13,        +4.179222120e-04,        +9.896680802e-01,        +9.761271316e-01
 1.390000000e+01,        +8.367184071e-14,        -5.836651202e-13,        +4.182614512e-04,        +9.902950980e-01,        +9.766261114e-01
 1.400000000e+01,        +7.838301275e-14,        -5.819495658e-13,        +4.183337687e-04,        +9.908752201e-01,        +9.771125548e-01
 1.410000000e+01,        +7.313046703e-14,        -5.802040868e-13,        +4.181572471e-04,        +9.914062090e-01,        +9.775849501e-01
 1.420000000e+01,        +6.791279800e-14,        -5.784290782e-13,        +4.177530496e-04,        +9.918866013e-01,        +9.780416524e-01
 1.430000000e+01,        +6.272864503e-14,        -5.766247231e-13,        +4.171444209e-04,        +9.923156768e-01,        +9.784809301e-01
 1.440000000e+01,        +5.757672787e-14,        -5.747910131e-13,        +4.163556922e-04,        +9.926933928e-01,        +9.789010131e-01
 1.450000000e+01,        +5.245587414e-14,        -5.729277762e-13,        +4.154113636e-04,        +9.930202924e-01,        +9.793001389e-01
 1.460000000e+01,        +4.736503814e-14,        -5.710347067e-13,        +4.143353129e-04,        +9.932973991e-01,        +9.796765947e-01
 1.470000000e+01,        +4.230331120e-14,        -5.691113969e-13,        +4.131501744e-04,        +9.935261051e-01,        +9.800287516e-01
 1.480000000e+01,        +3.726992450e-14,        -5.671573657e-13,        +4.118768822e-04,        +9.937080645e-01,        +9.803550917e-01
 1.490000000e+01,        +3.226424608e-14,        -5.651720869e-13,        +4.105343847e-04,        +9.938450952e-01,        +9.806542277e-01
 1.500000000e+01,        +2.728577299e-14,        -5.631550108e-13,        +4.091395056e-04,        +9.939390950e-01,        +9.809249143e-01
 1.510000000e+01,        +2.233412059e-14,        -5.611055831e-13,        +4.077069275e-04,        +9.939919729e-01,        +9.811660545e-01
 1.520000000e+01,        +1.740901020e-14,        -5.590232592e-13,        +4.062492694e-04,        +9.940055967e-01,        +9.813766997e-01
 1.530000000e+01,        +1.251025611e-14,        -5.569075142e-13,        +4.047772314e-04,        +9.939817542e-01,        +9.815560468e-01
 1.540000000e+01,        +7.637752880e-15,        -5.547578500e-13,        +4.032997814e-04,        +9.939221287e-01,        +9.817034325e-01
 1.550000000e+01,        +2.791463510e-15,        -5.525737992e-13,        +4.018243645e-04,        +9.938282851e-01,        +9.818183252e-01
 1.560000000e+01,        -2.028591263e-15,        -5.503549269e-13,        +4.003571177e-04,        +9.937016637e-01,        +9.819003171e-01
 1.570000000e+01,        -6.822342245e-15,        -5.481008311e-13,        +3.989030801e-04,        +9.935435823e-01,        +9.819491150e-01
 1.580000000e+01,        -1.158967969e-14,        -5.458111411e-13,        +3.974663897e-04,        +9.933552417e-01,        +9.819645319e-01
