        f (GHz),                  p_surf[1],                  Q_surf[1],                  p_surf[2],                  Q_surf[2],                  p_surf[3],                  Q_surf[3]
 2.00000000e+00,        +9.545613589644e-05,        +1.047601592720e+04,        +3.167451454638e-05,        +3.157112316704e+04,        +2.677858790748e-07,        +3.734326856424e+06
 2.10000000e+00,        +9.545514388986e-05,        +1.047612479799e+04,        +3.167422266504e-05,        +3.157141409831e+04,        +2.677844960562e-07,        +3.734346142990e+06
 2.20000000e+00,        +9.545411136124e-05,        +1.047623811839e+04,        +3.167394484146e-05,        +3.157169102255e+04,        +2.677830769451e-07,        +3.734365933083e+06
 2.30000000e+00,        +9.545303934291e-05,        +1.047635577540e+04,        +3.167369018909e-05,        +3.157194485486e+04,        +2.677816261502e-07,        +3.734386165237e+06
 2.40000000e+00,        +9.545192890011e-05,        +1.047647765240e+04,        +3.167346995878e-05,        +3.157216437926e+04,        +2.677801483770e-07,        +3.734406773845e+06
 2.50000000e+00,        +9.545078115760e-05,        +1.047660362621e+04,        +3.167329720926e-05,        +3.157233657719e+04,        +2.677786487727e-07,        +3.734427687134e+06
 2.60000000e+00,        +9.544959736981e-05,        +1.047673355945e+04,        +3.167318494416e-05,        +3.157244848483e+04,        +2.677771331872e-07,        +3.734448823533e+06
 2.70000000e+00,        +9.544837908707e-05,        +1.047686728224e+04,        +3.167314040583e-05,        +3.157249288157e+04,        +2.677756086384e-07,        +3.734470085176e+06
 2.80000000e+00,        +9.544712849163e-05,        +1.047700455533e+04,        +3.167315133862e-05,        +3.157248198352e+04,        +2.677740839867e-07,        +3.734491348497e+06
 2.90000000e+00,        +9.544584893808e-05,        +1.047714501077e+04,        +3.167315959482e-05,        +3.157247375357e+04,        +2.677725705036e-07,        +3.734512456296e+06
 3.00000000e+00,        +9.544454541473e-05,        +1.047728810122e+04,        +3.167302802007e-05,        +3.157260491060e+04,        +2.677710810826e-07,        +3.734533228746e+06
 3.10000000e+00,        +9.544322385674e-05,        +1.047743317536e+04,        +3.167254362848e-05,        +3.157308777375e+04,        +2.677696258604e-07,        +3.734553524459e+06
 3.20000000e+00,        +9.544188814806e-05,        +1.047757980698e+04,        +3.167152912728e-05,        +3.157409912168e+04,        +2.677682048642e-07,        +3.734573343042e+06
 3.30000000e+00,        +9.544053690596e-05,        +1.047772814800e+04,        +3.167001695064e-05,        +3.157560671845e+04,        +2.677668066771e-07,        +3.734592843712e+06
 3.40000000e+00,        +9.543916498741e-05,        +1.047787876321e+04,        +3.166825552791e-05,        +3.157736298795e+04,        +2.677654196372e-07,        +3.734612189113e+06
 3.50000000e+00,        +9.543776852607e-05,        +1.047803207728e+04,        +3.166651078600e-05,        +3.157910281805e+04,        +2.677640428537e-07,        +3.734631391663e+06
 3.60000000e+00,        +9.543634727855e-05,        +1.047818811717e+04,        +3.166492250155e-05,        +3.158068679786e+04,        +2.677626851775e-07,        +3.734650327910e+06
 3.70000000e+00,        +9.543490350082e-05,        +1.047834663543e+04,        +3.166351477354e-05,        +3.158209084342e+04,        +2.677613586749e-07,        +3.734668829546e+06
 3.80000000e+00,        +9.543344028132e-05,        +1.047850729317e+04,        +3.166225844647e-05,        +3.158334398952e+04,        +2.677600745923e-07,        +3.734686739696e+06
 3.90000000e+00,        +9.543196067537e-05,        +1.047866975511e+04,        +3.166111303172e-05,        +3.158448659079e+04,        +2.677588424059e-07,        +3.734703926170e+06
 4.00000000e+00,        +9.543046746191e-05,        +1.047883371628e+04,        +3.166004327340e-05,        +3.158555379613e+04,        +2.677576701339e-07,        +3.734720277107e+06
 4.10000000e+00,        +9.542896315534e-05,        +1.047899890070e+04,        +3.165902259833e-05,        +3.158657210260e+04,        +2.677565648377e-07,        +3.734735693992e+06
 4.20000000e+00,        +9.542745007583e-05,        +1.047916505372e+04,        +3.165803213289e-05,        +3.158756033231e+04,        +2.677555329952e-07,        +3.734750086445e+06
 4.30000000e+00,        +9.542593041479e-05,        +1.047933193476e+04,        +3.165705879058e-05,        +3.158853153779e+04,        +2.677545807291e-07,        +3.734763369041e+06
 4.40000000e+00,        +9.542440628192e-05,        +1.047949931222e+04,        +3.165609355577e-05,        +3.158949471255e+04,        +2.677537139319e-07,        +3.734775459565e+06
 4.50000000e+00,        +9.542287973545e-05,        +1.047966696009e+04,        +3.165513022484e-05,        +3.159045604606e+04,        +2.677529383295e-07,        +3.734786278123e+06
 4.60000000e+00,        +9.542135280050e-05,        +1.047983465599e+04,        +3.165416452386e-05,        +3.159141980343e+04,        +2.677522595088e-07,        +3.734795746764e+06
 4.70000000e+00,        +9.541982747961e-05,        +1.048000217998e+04,        +3.165319350503e-05,        +3.159238892724e+04,        +2.677516829251e-07,        +3.734803789374e+06
 4.80000000e+00,        +9.541830575836e-05,        +1.048016931397e+04,        +3.165221513595e-05,        +3.159336544709e+04,        +2.677512138987e-07,        +3.734810331722e+06
 4.90000000e+00,        +9.541678960728e-05,        +1.048033584148e+04,        +3.165122803310e-05,        +3.159435074538e+04,        +2.677508576043e-07,        +3.734815301611e+06
 5.00000000e+00,        +9.541528098203e-05,        +1.048050154763e+04,        +3.165023126832e-05,        +3.159534575031e+04,        +2.677506190581e-07,        +3.734818629057e+06
 5.10000000e+00,        +9.541378182202e-05,        +1.048066621932e+04,        +3.164922424123e-05,        +3.159635106308e+04,        +2.677505031015e-07,        +3.734820246522e+06
 5.20000000e+00,        +9.541229404803e-05,        +1.048082964546e+04,        +3.164820659024e-05,        +3.159736704664e+04,        +2.677505143841e-07,        +3.734820089142e+06
 5.30000000e+00,        +9.541081955934e-05,        +1.048099161729e+04,        +3.164717812548e-05,        +3.159839389265e+04,        +2.677506573463e-07,        +3.734818094981e+06
 5.40000000e+00,        +9.540936023016e-05,        +1.048115192878e+04,        +3.164613879037e-05,        +3.159943165971e+04,        +2.677509362012e-07,        +3.734814205276e+06
 5.50000000e+00,        +9.540791790600e-05,        +1.048131037704e+04,        +3.164508862320e-05,        +3.160048031172e+04,        +2.677513549159e-07,        +3.734808364701e+06
 5.60000000e+00,        +9.540649439964e-05,        +1.048146676275e+04,        +3.164402773583e-05,        +3.160153973913e+04,        +2.677519171942e-07,        +3.734800521614e+06
 5.70000000e+00,        +9.540509148688e-05,        +1.048162089062e+04,        +3.164295629722e-05,        +3.160260977536e+04,        +2.677526264574e-07,        +3.734790628316e+06
 5.80000000e+00,        +9.540371090230e-05,        +1.048177256988e+04,        +3.164187451920e-05,        +3.160369021099e+04,        +2.677534858269e-07,        +3.734778641300e+06
 5.90000000e+00,        +9.540235433480e-05,        +1.048192161475e+04,        +3.164078264690e-05,        +3.160478080330e+04,        +2.677544981062e-07,        +3.734764521504e+06
 6.00000000e+00,        +9.540102342312e-05,        +1.048206784496e+04,        +3.163968095191e-05,        +3.160588128306e+04,        +2.677556657634e-07,        +3.734748234548e+06
 6.10000000e+00,        +9.539971975126e-05,        +1.048221108623e+04,        +3.163856972911e-05,        +3.160699135776e+04,        +2.677569909142e-07,        +3.734729750980e+06
 6.20000000e+00,        +9.539844484405e-05,        +1.048235117076e+04,        +3.163744928592e-05,        +3.160811072228e+04,        +2.677584753051e-07,        +3.734709046504e+06
 6.30000000e+00,        +9.539720016243e-05,        +1.048248793777e+04,        +3.163631994786e-05,        +3.160923905335e+04,        +2.677601202975e-07,        +3.734686102205e+06
 6.40000000e+00,        +9.539598709906e-05,        +1.048262123397e+04,        +3.163518204757e-05,        +3.161037602048e+04,        +2.677619268523e-07,        +3.734660904766e+06
 6.50000000e+00,        +9.539480697376e-05,        +1.048275091405e+04,        +3.163403593074e-05,        +3.161152128010e+04,        +2.677638955145e-07,        +3.734633446673e+06
 6.60000000e+00,        +9.539366102911e-05,        +1.048287684121e+04,        +3.163288194926e-05,        +3.161267448233e+04,        +2.677660264000e-07,        +3.734603726412e+06
 6.70000000e+00,        +9.539255042617e-05,        +1.048299888757e+04,        +3.163172046192e-05,        +3.161383527032e+04,        +2.677683191819e-07,        +3.734571748650e+06
 6.80000000e+00,        +9.539147624026e-05,        +1.048311693470e+04,        +3.163055183422e-05,        +3.161500328041e+04,        +2.677707730784e-07,        +3.734537524405e+06
 6.90000000e+00,        +9.539043945683e-05,        +1.048323087402e+04,        +3.162937643928e-05,        +3.161617814122e+04,        +2.677733868416e-07,        +3.734501071204e+06
 7.00000000e+00,        +9.538944096772e-05,        +1.048334060725e+04,        +3.162819465424e-05,        +3.161735947726e+04,        +2.677761587476e-07,        +3.734462413222e+06
 7.10000000e+00,        +9.538848156728e-05,        +1.048344604683e+04,        +3.162700686329e-05,        +3.161854690590e+04,        +2.677790865871e-07,        +3.734421581406e+06
 7.20000000e+00,        +9.538756194906e-05,        +1.048354711628e+04,        +3.162581345674e-05,        +3.161974003824e+04,        +2.677821676582e-07,        +3.734378613577e+06
 7.30000000e+00,        +9.538668270245e-05,        +1.048364375056e+04,        +3.162461483268e-05,        +3.162093847754e+04,        +2.677853987596e-07,        +3.734333554525e+06
 7.40000000e+00,        +9.538584430979e-05,        +1.048373589641e+04,        +3.162341139607e-05,        +3.162214182004e+04,        +2.677887761865e-07,        +3.734286456067e+06
 7.50000000e+00,        +9.538504714374e-05,        +1.048382351264e+04,        +3.162220356138e-05,        +3.162334965237e+04,        +2.677922957261e-07,        +3.734237377100e+06
 7.60000000e+00,        +9.538429146498e-05,        +1.048390657037e+04,        +3.162099175236e-05,        +3.162456155175e+04,        +2.677959526568e-07,        +3.734186383621e+06
 7.70000000e+00,        +9.538357742025e-05,        +1.048398505326e+04,        +3.161977640461e-05,        +3.162577708342e+04,        +2.677997417473e-07,        +3.734133548730e+06
 7.80000000e+00,        +9.538290504089e-05,        +1.048405895764e+04,        +3.161855796625e-05,        +3.162699579998e+04,        +2.678036572585e-07,        +3.734078952606e+06
 7.90000000e+00,        +9.538227424173e-05,        +1.048412829270e+04,        +3.161733690034e-05,        +3.162821723891e+04,        +2.678076929464e-07,        +3.734022682463e+06
 8.00000000e+00,        +9.538168482053e-05,        +1.048419308048e+04,        +3.161611368764e-05,        +3.162944091989e+04,        +2.678118420676e-07,        +3.733964832472e+06
 8.10000000e+00,        +9.538113645793e-05,        +1.048425335591e+04,        +3.161488882832e-05,        +3.163066634302e+04,        +2.678160973861e-07,        +3.733905503665e+06
 8.20000000e+00,        +9.538062871793e-05,        +1.048430916677e+04,        +3.161366284471e-05,        +3.163189298602e+04,        +2.678204511820e-07,        +3.733844803810e+06
 8.30000000e+00,        +9.538016104899e-05,        +1.048436057354e+04,        +3.161243628596e-05,        +3.163312029969e+04,        +2.678248952627e-07,        +3.733782847256e+06
 8.40000000e+00,        +9.537973278583e-05,        +1.048440764922e+04,        +3.161120973029e-05,        +3.163434770552e+04,        +2.678294209757e-07,        +3.733719754750e+06
 8.50000000e+00,        +9.537934315192e-05,        +1.048445047904e+04,        +3.160998378998e-05,        +3.163557459074e+04,        +2.678340192234e-07,        +3.733655653227e+06
 8.60000000e+00,        +9.537899126266e-05,        +1.048448916016e+04,        +3.160875911608e-05,        +3.163680030360e+04,        +2.678386804808e-07,        +3.733590675570e+06
 8.70000000e+00,        +9.537867612946e-05,        +1.048452380113e+04,        +3.160753640337e-05,        +3.163802414836e+04,        +2.678433948138e-07,        +3.733524960342e+06
 8.80000000e+00,        +9.537839666471e-05,        +1.048455452145e+04,        +3.160631639666e-05,        +3.163924537900e+04,        +2.678481519014e-07,        +3.733458651483e+06
 8.90000000e+00,        +9.537815168761e-05,        +1.048458145085e+04,        +3.160509989770e-05,        +3.164046319223e+04,        +2.678529410594e-07,        +3.733391897976e+06
 9.00000000e+00,        +9.537793993115e-05,        +1.048460472853e+04,        +3.160388777225e-05,        +3.164167672048e+04,        +2.678577512656e-07,        +3.733324853491e+06
 9.10000000e+00,        +9.537776005014e-05,        +1.048462450234e+04,        +3.160268095816e-05,        +3.164288502371e+04,        +2.678625711890e-07,        +3.733257675984e+06
 9.20000000e+00,        +9.537761063038e-05,        +1.048464092768e+04,        +3.160148047546e-05,        +3.164408707929e+04,        +2.678673892198e-07,        +3.733190527271e+06
 9.30000000e+00,        +9.537749019931e-05,        +1.048465416641e+04,        +3.160028743592e-05,        +3.164528177244e+04,        +2.678721935026e-07,        +3.733123572567e+06
 9.40000000e+00,        +9.537739723787e-05,        +1.048466438548e+04,        +3.159910305513e-05,        +3.164646788408e+04,        +2.678769719725e-07,        +3.733056979988e+06
 9.50000000e+00,        +9.537733019408e-05,        +1.048467175549e+04,        +3.159792866438e-05,        +3.164764407888e+04,        +2.678817123922e-07,        +3.732990920022e+06
 9.60000000e+00,        +9.537728749810e-05,        +1.048467644899e+04,        +3.159676572524e-05,        +3.164880889063e+04,        +2.678864023936e-07,        +3.732925564960e+06
 9.70000000e+00,        +9.537726757926e-05,        +1.048467863864e+04,        +3.159561584466e-05,        +3.164996070710e+04,        +2.678910295211e-07,        +3.732861088286e+06
 9.80000000e+00,        +9.537726888490e-05,        +1.048467849511e+04,        +3.159448079174e-05,        +3.165109775317e+04,        +2.678955812776e-07,        +3.732797664042e+06
 9.90000000e+00,        +9.537728990139e-05,        +1.048467618480e+04,        +3.159336251600e-05,        +3.165221807250e+04,        +2.679000451741e-07,        +3.732735466133e+06
 1.00000000e+01,        +9.537732917736e-05,        +1.048467186726e+04,        +3.159226316755e-05,        +3.165331950727e+04,        +2.679044087819e-07,        +3.732674667606e+06
 1.01000000e+01,        +9.537738534928e-05,        +1.048466569237e+04,        +3.159118511797e-05,        +3.165439967718e+04,        +2.679086597877e-07,        +3.732615439876e+06
 1.02000000e+01,        +9.537745716969e-05,        +1.048465779729e+04,        +3.159013098390e-05,        +3.165545595584e+04,        +2.679127860528e-07,        +3.732557951911e+06
 1.03000000e+01,        +9.537754353795e-05,        +1.048464830301e+04,        +3.158910365061e-05,        +3.165648544702e+04,        +2.679167756745e-07,        +3.732502369373e+06
 1.04000000e+01,        +9.537764353372e-05,        +1.048463731070e+04,        +3.158810629821e-05,        +3.165748495840e+04,        +2.679206170520e-07,        +3.732448853706e+06
 1.05000000e+01,        +9.537775645326e-05,        +1.048462489774e+04,        +3.158714242711e-05,        +3.165845097598e+04,        +2.679242989544e-07,        +3.732397561187e+06
 1.06000000e+01,        +9.537788184822e-05,        +1.048461111342e+04,        +3.158621588522e-05,        +3.165937963679e+04,        +2.679278105930e-07,        +3.732348641922e+06
 1.07000000e+01,        +9.537801956702e-05,        +1.048459597441e+04,        +3.158533089354e-05,        +3.166026670325e+04,        +2.679311416959e-07,        +3.732302238816e+06
 1.08000000e+01,        +9.537816979823e-05,        +1.048457946001e+04,        +3.158449207112e-05,        +3.166110753810e+04,        +2.679342825851e-07,        +3.732258486490e+06
 1.09000000e+01,        +9.537833311544e-05,        +1.048456150717e+04,        +3.158370445671e-05,        +3.166189708274e+04,        +2.679372242560e-07,        +3.732217510190e+06
 1.10000000e+01,        +9.537851052281e-05,        +1.048454200552e+04,        +3.158297352693e-05,        +3.166262983906e+04,        +2.679399584568e-07,        +3.732179424673e+06
 1.11000000e+01,        +9.537870349995e-05,        +1.048452079243e+04,        +3.158230520692e-05,        +3.166329985884e+04,        +2.679424777678e-07,        +3.732144333108e+06
 1.12000000e+01,        +9.537891404453e-05,        +1.048449764833e+04,        +3.158170587257e-05,        +3.166390074162e+04,        +2.679447756782e-07,        +3.732112326015e+06
 1.13000000e+01,        +9.537914471040e-05,        +1.048447229252e+04,        +3.158118234070e-05,        +3.166442564474e+04,        +2.679468466575e-07,        +3.732083480266e+06
 1.14000000e+01,        +9.537939863828e-05,        +1.048444437978e+04,        +3.158074184230e-05,        +3.166486731039e+04,        +2.679486862180e-07,        +3.732057858222e+06
 1.15000000e+01,        +9.537967957562e-05,        +1.048441349824e+04,        +3.158039197633e-05,        +3.166521811222e+04,        +2.679502909650e-07,        +3.732035507028e+06
 1.16000000e+01,        +9.537999188108e-05,        +1.048437916882e+04,        +3.158014063794e-05,        +3.166547012772e+04,        +2.679516586291e-07,        +3.732016458179e+06
 1.17000000e+01,        +9.538034050880e-05,        +1.048434084703e+04,        +3.157999591577e-05,        +3.166561524160e+04,        +2.679527880735e-07,        +3.732000727402e+06
 1.18000000e+01,        +9.538073096631e-05,        +1.048429792757e+04,        +3.157996595400e-05,        +3.166564528463e+04,        +2.679536792717e-07,        +3.731988314988e+06
 1.19000000e+01,        +9.538116924014e-05,        +1.048424975251e+04,        +3.158005877298e-05,        +3.166555221410e+04,        +2.679543332442e-07,        +3.731979206653e+06
 1.20000000e+01,        +9.538166168224e-05,        +1.048419562380e+04,        +3.158028204505e-05,        +3.166532833917e+04,        +2.679547519498e-07,        +3.731973375070e+06
 1.21000000e+01,        +9.538221485138e-05,        +1.048413482071e+04,        +3.158064282295e-05,        +3.166496659381e+04,        +2.679549381205e-07,        +3.731970782155e+06
 1.22000000e+01,        +9.538283530421e-05,        +1.048406662279e+04,        +3.158114722064e-05,        +3.166446085740e+04,        +2.679548950358e-07,        +3.731971382223e+06
 1.23000000e+01,        +9.538352933315e-05,        +1.048399033870e+04,        +3.158180005175e-05,        +3.166380631761e+04,        +2.679546262289e-07,        +3.731975126064e+06
 1.24000000e+01,        +9.538430295162e-05,        +1.048390530785e+04,        +3.158260407166e-05,        +3.166300023048e+04,        +2.679541358728e-07,        +3.731981955579e+06
 1.25000000e+01,        +9.538516034464e-05,        +1.048381107068e+04,        +3.158356095982e-05,        +3.166204093554e+04,        +2.679534254459e-07,        +3.731991850210e+06
 1.26000000e+01,        +9.538610522421e-05,        +1.048370721972e+04,        +3.158466888190e-05,        +3.166093029941e+04,        +2.679524975212e-07,        +3.732004774170e+06
