         f (GHz),               p_surf[1],               Q_surf[1],               p_surf[2],               Q_surf[2],               p_surf[3],               Q_surf[3]
 2.000000000e+00,        +9.521284243e-05,        +1.050278486e+04,        +3.292989339e-05,        +3.036754442e+04,        +2.766357535e-07,        +3.614861736e+06
 2.100000000e+00,        +9.521185624e-05,        +1.050289365e+04,        +3.292935940e-05,        +3.036803686e+04,        +2.766331177e-07,        +3.614896178e+06
 2.200000000e+00,        +9.521083050e-05,        +1.050300680e+04,        +3.292879816e-05,        +3.036855445e+04,        +2.766303958e-07,        +3.614931748e+06
 2.300000000e+00,        +9.520976637e-05,        +1.050312419e+04,        +3.292821108e-05,        +3.036909589e+04,        +2.766275935e-07,        +3.614968367e+06
 2.400000000e+00,        +9.520866509e-05,        +1.050324568e+04,        +3.292759911e-05,        +3.036966032e+04,        +2.766247170e-07,        +3.615005958e+06
 2.500000000e+00,        +9.520752795e-05,        +1.050337113e+04,        +3.292696290e-05,        +3.037024711e+04,        +2.766217726e-07,        +3.615044436e+06
 2.600000000e+00,        +9.520635629e-05,        +1.050350039e+04,        +3.292630304e-05,        +3.037085575e+04,        +2.766187668e-07,        +3.615083718e+06
 2.700000000e+00,        +9.520515149e-05,        +1.050363330e+04,        +3.292561999e-05,        +3.037148580e+04,        +2.766157064e-07,        +3.615123714e+06
 2.800000000e+00,        +9.520391499e-05,        +1.050376973e+04,        +3.292491421e-05,        +3.037213684e+04,        +2.766125983e-07,        +3.615164335e+06
 2.900000000e+00,        +9.520264827e-05,        +1.050390948e+04,        +3.292418613e-05,        +3.037280849e+04,        +2.766094495e-07,        +3.615205488e+06
 3.000000000e+00,        +9.520135285e-05,        +1.050405241e+04,        +3.292343616e-05,        +3.037350036e+04,        +2.766062675e-07,        +3.615247077e+06
 3.100000000e+00,        +9.520003030e-05,        +1.050419834e+04,        +3.292266471e-05,        +3.037421207e+04,        +2.766030596e-07,        +3.615289005e+06
 3.200000000e+00,        +9.519868223e-05,        +1.050434708e+04,        +3.292187221e-05,        +3.037494325e+04,        +2.765998334e-07,        +3.615331172e+06
 3.300000000e+00,        +9.519731028e-05,        +1.050449847e+04,        +3.292105907e-05,        +3.037569350e+04,        +2.765965968e-07,        +3.615373477e+06
 3.400000000e+00,        +9.519591615e-05,        +1.050465230e+04,        +3.292022573e-05,        +3.037646243e+04,        +2.765933576e-07,        +3.615415817e+06
 3.500000000e+00,        +9.519450155e-05,        +1.050480841e+04,        +3.291937260e-05,        +3.037724965e+04,        +2.765901239e-07,        +3.615458087e+06
 3.600000000e+00,        +9.519306823e-05,        +1.050496658e+04,        +3.291850015e-05,        +3.037805476e+04,        +2.765869037e-07,        +3.615500180e+06
 3.700000000e+00,        +9.519161798e-05,        +1.050512662e+04,        +3.291760881e-05,        +3.037887733e+04,        +2.765837052e-07,        +3.615541990e+06
 3.800000000e+00,        +9.519015263e-05,        +1.050528833e+04,        +3.291669905e-05,        +3.037971695e+04,        +2.765805369e-07,        +3.615583408e+06
 3.900000000e+00,        +9.518867401e-05,        +1.050545152e+04,        +3.291577132e-05,        +3.038057320e+04,        +2.765774070e-07,        +3.615624324e+06
 4.000000000e+00,        +9.518718400e-05,        +1.050561597e+04,        +3.291482611e-05,        +3.038144564e+04,        +2.765743239e-07,        +3.615664628e+06
 4.100000000e+00,        +9.518568448e-05,        +1.050578147e+04,        +3.291386388e-05,        +3.038233383e+04,        +2.765712961e-07,        +3.615704211e+06
 4.200000000e+00,        +9.518417737e-05,        +1.050594781e+04,        +3.291288514e-05,        +3.038323732e+04,        +2.765683321e-07,        +3.615742961e+06
 4.300000000e+00,        +9.518266459e-05,        +1.050611479e+04,        +3.291189037e-05,        +3.038415566e+04,        +2.765654403e-07,        +3.615780767e+06
 4.400000000e+00,        +9.518114808e-05,        +1.050628218e+04,        +3.291088007e-05,        +3.038508839e+04,        +2.765626292e-07,        +3.615817520e+06
 4.500000000e+00,        +9.517962980e-05,        +1.050644977e+04,        +3.290985475e-05,        +3.038603505e+04,        +2.765599071e-07,        +3.615853109e+06
 4.600000000e+00,        +9.517811170e-05,        +1.050661735e+04,        +3.290881492e-05,        +3.038699517e+04,        +2.765572825e-07,        +3.615887425e+06
 4.700000000e+00,        +9.517659575e-05,        +1.050678470e+04,        +3.290776110e-05,        +3.038796827e+04,        +2.765547635e-07,        +3.615920360e+06
 4.800000000e+00,        +9.517508392e-05,        +1.050695160e+04,        +3.290669381e-05,        +3.038895387e+04,        +2.765523584e-07,        +3.615951806e+06
 4.900000000e+00,        +9.517357815e-05,        +1.050711783e+04,        +3.290561357e-05,        +3.038995149e+04,        +2.765500753e-07,        +3.615981659e+06
 5.000000000e+00,        +9.517208042e-05,        +1.050728318e+04,        +3.290452091e-05,        +3.039096064e+04,        +2.765479219e-07,        +3.616009815e+06
 5.100000000e+00,        +9.517059264e-05,        +1.050744744e+04,        +3.290341637e-05,        +3.039198085e+04,        +2.765459062e-07,        +3.616036172e+06
 5.200000000e+00,        +9.516911677e-05,        +1.050761039e+04,        +3.290230047e-05,        +3.039301161e+04,        +2.765440356e-07,        +3.616060631e+06
 5.300000000e+00,        +9.516765469e-05,        +1.050777182e+04,        +3.290117375e-05,        +3.039405243e+04,        +2.765423176e-07,        +3.616083096e+06
 5.400000000e+00,        +9.516620830e-05,        +1.050793152e+04,        +3.290003675e-05,        +3.039510282e+04,        +2.765407592e-07,        +3.616103473e+06
 5.500000000e+00,        +9.516477946e-05,        +1.050808929e+04,        +3.289889001e-05,        +3.039616229e+04,        +2.765393675e-07,        +3.616121673e+06
 5.600000000e+00,        +9.516336999e-05,        +1.050824493e+04,        +3.289773405e-05,        +3.039723035e+04,        +2.765381488e-07,        +3.616137608e+06
 5.700000000e+00,        +9.516198167e-05,        +1.050839823e+04,        +3.289656943e-05,        +3.039830649e+04,        +2.765371098e-07,        +3.616151195e+06
 5.800000000e+00,        +9.516061626e-05,        +1.050854901e+04,        +3.289539667e-05,        +3.039939023e+04,        +2.765362562e-07,        +3.616162357e+06
 5.900000000e+00,        +9.515927546e-05,        +1.050869708e+04,        +3.289421630e-05,        +3.040048107e+04,        +2.765355937e-07,        +3.616171020e+06
 6.000000000e+00,        +9.515796093e-05,        +1.050884225e+04,        +3.289302886e-05,        +3.040157853e+04,        +2.765351278e-07,        +3.616177113e+06
 6.100000000e+00,        +9.515667424e-05,        +1.050898435e+04,        +3.289183488e-05,        +3.040268211e+04,        +2.765348632e-07,        +3.616180573e+06
 6.200000000e+00,        +9.515541696e-05,        +1.050912320e+04,        +3.289063488e-05,        +3.040379134e+04,        +2.765348044e-07,        +3.616181341e+06
 6.300000000e+00,        +9.515419054e-05,        +1.050925865e+04,        +3.288942939e-05,        +3.040490573e+04,        +2.765349556e-07,        +3.616179364e+06
 6.400000000e+00,        +9.515299639e-05,        +1.050939054e+04,        +3.288821892e-05,        +3.040602480e+04,        +2.765353203e-07,        +3.616174595e+06
 6.500000000e+00,        +9.515183585e-05,        +1.050951872e+04,        +3.288700399e-05,        +3.040714808e+04,        +2.765359017e-07,        +3.616166993e+06
 6.600000000e+00,        +9.515071017e-05,        +1.050964305e+04,        +3.288578510e-05,        +3.040827509e+04,        +2.765367023e-07,        +3.616156523e+06
 6.700000000e+00,        +9.514962052e-05,        +1.050976341e+04,        +3.288456277e-05,        +3.040940538e+04,        +2.765377244e-07,        +3.616143158e+06
 6.800000000e+00,        +9.514856798e-05,        +1.050987967e+04,        +3.288333749e-05,        +3.041053848e+04,        +2.765389695e-07,        +3.616126876e+06
 6.900000000e+00,        +9.514755355e-05,        +1.050999172e+04,        +3.288210976e-05,        +3.041167392e+04,        +2.765404387e-07,        +3.616107665e+06
 7.000000000e+00,        +9.514657813e-05,        +1.051009947e+04,        +3.288088008e-05,        +3.041281126e+04,        +2.765421323e-07,        +3.616085518e+06
 7.100000000e+00,        +9.514564253e-05,        +1.051020282e+04,        +3.287964892e-05,        +3.041395005e+04,        +2.765440505e-07,        +3.616060437e+06
 7.200000000e+00,        +9.514474745e-05,        +1.051030169e+04,        +3.287841678e-05,        +3.041508983e+04,        +2.765461923e-07,        +3.616032431e+06
 7.300000000e+00,        +9.514389347e-05,        +1.051039603e+04,        +3.287718414e-05,        +3.041623017e+04,        +2.765485565e-07,        +3.616001517e+06
 7.400000000e+00,        +9.514308110e-05,        +1.051048577e+04,        +3.287595147e-05,        +3.041737061e+04,        +2.765511413e-07,        +3.615967721e+06
 7.500000000e+00,        +9.514231071e-05,        +1.051057088e+04,        +3.287471925e-05,        +3.041851072e+04,        +2.765539440e-07,        +3.615931075e+06
 7.600000000e+00,        +9.514158256e-05,        +1.051065132e+04,        +3.287348796e-05,        +3.041965006e+04,        +2.765569615e-07,        +3.615891622e+06
 7.700000000e+00,        +9.514089682e-05,        +1.051072707e+04,        +3.287225807e-05,        +3.042078819e+04,        +2.765601899e-07,        +3.615849412e+06
 7.800000000e+00,        +9.514025350e-05,        +1.051079814e+04,        +3.287103006e-05,        +3.042192466e+04,        +2.765636247e-07,        +3.615804504e+06
 7.900000000e+00,        +9.513965254e-05,        +1.051086454e+04,        +3.286980443e-05,        +3.042305902e+04,        +2.765672610e-07,        +3.615756964e+06
 8.000000000e+00,        +9.513909372e-05,        +1.051092628e+04,        +3.286858165e-05,        +3.042419081e+04,        +2.765710928e-07,        +3.615706869e+06
 8.100000000e+00,        +9.513857674e-05,        +1.051098339e+04,        +3.286736224e-05,        +3.042531958e+04,        +2.765751139e-07,        +3.615654301e+06
 8.200000000e+00,        +9.513810116e-05,        +1.051103593e+04,        +3.286614670e-05,        +3.042644485e+04,        +2.765793171e-07,        +3.615599353e+06
 8.300000000e+00,        +9.513766643e-05,        +1.051108396e+04,        +3.286493557e-05,        +3.042756612e+04,        +2.765836948e-07,        +3.615542126e+06
 8.400000000e+00,        +9.513727188e-05,        +1.051112756e+04,        +3.286372939e-05,        +3.042868289e+04,        +2.765882388e-07,        +3.615482728e+06
 8.500000000e+00,        +9.513691674e-05,        +1.051116679e+04,        +3.286252873e-05,        +3.042979462e+04,        +2.765929400e-07,        +3.615421275e+06
 8.600000000e+00,        +9.513660012e-05,        +1.051120177e+04,        +3.286133420e-05,        +3.043090077e+04,        +2.765977891e-07,        +3.615357892e+06
 8.700000000e+00,        +9.513632103e-05,        +1.051123261e+04,        +3.286014643e-05,        +3.043200072e+04,        +2.766027760e-07,        +3.615292711e+06
 8.800000000e+00,        +9.513607838e-05,        +1.051125942e+04,        +3.285896611e-05,        +3.043309387e+04,        +2.766078900e-07,        +3.615225870e+06
 8.900000000e+00,        +9.513587098e-05,        +1.051128233e+04,        +3.285779395e-05,        +3.043417953e+04,        +2.766131200e-07,        +3.615157517e+06
 9.000000000e+00,        +9.513569757e-05,        +1.051130149e+04,        +3.285663075e-05,        +3.043525697e+04,        +2.766184543e-07,        +3.615087802e+06
 9.100000000e+00,        +9.513555680e-05,        +1.051131705e+04,        +3.285547734e-05,        +3.043632542e+04,        +2.766238807e-07,        +3.615016887e+06
 9.200000000e+00,        +9.513544725e-05,        +1.051132915e+04,        +3.285433465e-05,        +3.043738400e+04,        +2.766293866e-07,        +3.614944935e+06
 9.300000000e+00,        +9.513536743e-05,        +1.051133797e+04,        +3.285320369e-05,        +3.043843180e+04,        +2.766349589e-07,        +3.614872119e+06
 9.400000000e+00,        +9.513531583e-05,        +1.051134367e+04,        +3.285208557e-05,        +3.043946777e+04,        +2.766405842e-07,        +3.614798613e+06
 9.500000000e+00,        +9.513529088e-05,        +1.051134643e+04,        +3.285098150e-05,        +3.044049080e+04,        +2.766462487e-07,        +3.614724597e+06
 9.600000000e+00,        +9.513529100e-05,        +1.051134642e+04,        +3.284989282e-05,        +3.044149962e+04,        +2.766519383e-07,        +3.614650258e+06
 9.700000000e+00,        +9.513531461e-05,        +1.051134381e+04,        +3.284882102e-05,        +3.044249288e+04,        +2.766576385e-07,        +3.614575782e+06
 9.800000000e+00,        +9.513536015e-05,        +1.051133877e+04,        +3.284776775e-05,        +3.044346902e+04,        +2.766633347e-07,        +3.614501361e+06
 9.900000000e+00,        +9.513542609e-05,        +1.051133149e+04,        +3.284673482e-05,        +3.044442638e+04,        +2.766690122e-07,        +3.614427188e+06
 1.000000000e+01,        +9.513551096e-05,        +1.051132211e+04,        +3.284572426e-05,        +3.044536306e+04,        +2.766746560e-07,        +3.614353459e+06
 1.010000000e+01,        +9.513561338e-05,        +1.051131080e+04,        +3.284473831e-05,        +3.044627698e+04,        +2.766802511e-07,        +3.614280369e+06
 1.020000000e+01,        +9.513573207e-05,        +1.051129768e+04,        +3.284377945e-05,        +3.044716584e+04,        +2.766857824e-07,        +3.614208114e+06
 1.030000000e+01,        +9.513586590e-05,        +1.051128290e+04,        +3.284285045e-05,        +3.044802708e+04,        +2.766912350e-07,        +3.614136892e+06
 1.040000000e+01,        +9.513601393e-05,        +1.051126654e+04,        +3.284195436e-05,        +3.044885786e+04,        +2.766965939e-07,        +3.614066895e+06
 1.050000000e+01,        +9.513617540e-05,        +1.051124870e+04,        +3.284109454e-05,        +3.044965505e+04,        +2.767018445e-07,        +3.613998316e+06
 1.060000000e+01,        +9.513634982e-05,        +1.051122943e+04,        +3.284027471e-05,        +3.045041519e+04,        +2.767069721e-07,        +3.613931345e+06
 1.070000000e+01,        +9.513653697e-05,        +1.051120875e+04,        +3.283949897e-05,        +3.045113450e+04,        +2.767119627e-07,        +3.613866166e+06
 1.080000000e+01,        +9.513673699e-05,        +1.051118665e+04,        +3.283877181e-05,        +3.045180879e+04,        +2.767168025e-07,        +3.613802961e+06
 1.090000000e+01,        +9.513695035e-05,        +1.051116308e+04,        +3.283809813e-05,        +3.045243352e+04,        +2.767214780e-07,        +3.613741902e+06
 1.100000000e+01,        +9.513717797e-05,        +1.051113793e+04,        +3.283748326e-05,        +3.045300372e+04,        +2.767259764e-07,        +3.613683157e+06
 1.110000000e+01,        +9.513742121e-05,        +1.051111106e+04,        +3.283693300e-05,        +3.045351403e+04,        +2.767302856e-07,        +3.613626885e+06
 1.120000000e+01,        +9.513768193e-05,        +1.051108225e+04,        +3.283645356e-05,        +3.045395869e+04,        +2.767343940e-07,        +3.613573238e+06
 1.130000000e+01,        +9.513796253e-05,        +1.051105125e+04,        +3.283605157e-05,        +3.045433151e+04,        +2.767382908e-07,        +3.613522354e+06
 1.140000000e+01,        +9.513826596e-05,        +1.051101773e+04,        +3.283573409e-05,        +3.045462597e+04,        +2.767419661e-07,        +3.613474364e+06
 1.150000000e+01,        +9.513859575e-05,        +1.051098129e+04,        +3.283550848e-05,        +3.045483522e+04,        +2.767454108e-07,        +3.613429386e+06
 1.160000000e+01,        +9.513895601e-05,        +1.051094149e+04,        +3.283538238e-05,        +3.045495217e+04,        +2.767486169e-07,        +3.613387526e+06
 1.170000000e+01,        +9.513935141e-05,        +1.051089781e+04,        +3.283536359e-05,        +3.045496960e+04,        +2.767515771e-07,        +3.613348875e+06
 1.180000000e+01,        +9.513978714e-05,        +1.051084967e+04,        +3.283545990e-05,        +3.045488027e+04,        +2.767542854e-07,        +3.613313516e+06
 1.190000000e+01,        +9.514026881e-05,        +1.051079645e+04,        +3.283567891e-05,        +3.045467715e+04,        +2.767567365e-07,        +3.613281515e+06
 1.200000000e+01,        +9.514080237e-05,        +1.051073751e+04,        +3.283602781e-05,        +3.045435355e+04,        +2.767589262e-07,        +3.613252927e+06
 1.210000000e+01,        +9.514139435e-05,        +1.051067211e+04,        +3.283651225e-05,        +3.045390425e+04,        +2.767608520e-07,        +3.613227785e+06
 1.220000000e+01,        +9.514205001e-05,        +1.051059968e+04,        +3.283713927e-05,        +3.045332274e+04,        +2.767625093e-07,        +3.613206148e+06
 1.230000000e+01,        +9.514277551e-05,        +1.051051953e+04,        +3.283791217e-05,        +3.045260596e+04,        +2.767638968e-07,        +3.613188033e+06
 1.240000000e+01,        +9.514357601e-05,        +1.051043110e+04,        +3.283883322e-05,        +3.045175184e+04,        +2.767650127e-07,        +3.613173465e+06
 1.250000000e+01,        +9.514445572e-05,        +1.051033392e+04,        +3.283990246e-05,        +3.045076036e+04,        +2.767658549e-07,        +3.613162470e+06
 1.260000000e+01,        +9.514541750e-05,        +1.051022767e+04,        +3.284111733e-05,        +3.044963392e+04,        +2.767664213e-07,        +3.613155076e+06
 1.270000000e+01,        +9.514646247e-05,        +1.051011224e+04,        +3.284247228e-05,        +3.044837768e+04,        +2.767667088e-07,        +3.613151322e+06
 1.280000000e+01,        +9.514758960e-05,        +1.050998774e+04,        +3.284395850e-05,        +3.044699986e+04,        +2.767667136e-07,        +3.613151260e+06
 1.290000000e+01,        +9.514879536e-05,        +1.050985455e+04,        +3.284556370e-05,        +3.044551188e+04,        +2.767664302e-07,        +3.613154959e+06
 1.300000000e+01,        +9.515007342e-05,        +1.050971338e+04,        +3.284727210e-05,        +3.044392840e+04,        +2.767658515e-07,        +3.613162515e+06
 1.310000000e+01,        +9.515141450e-05,        +1.050956526e+04,        +3.284906456e-05,        +3.044226718e+04,        +2.767649683e-07,        +3.613174045e+06
 1.320000000e+01,        +9.515280628e-05,        +1.050941154e+04,        +3.285091891e-05,        +3.044054880e+04,        +2.767637693e-07,        +3.613189698e+06
 1.330000000e+01,        +9.515423355e-05,        +1.050925390e+04,        +3.285281049e-05,        +3.043879610e+04,        +2.767622411e-07,        +3.613209649e+06
 1.340000000e+01,        +9.515567848e-05,        +1.050909432e+04,        +3.285471290e-05,        +3.043703359e+04,        +2.767603683e-07,        +3.613234100e+06
 1.350000000e+01,        +9.515712106e-05,        +1.050893500e+04,        +3.285659881e-05,        +3.043528655e+04,        +2.767581336e-07,        +3.613263274e+06
 1.360000000e+01,        +9.515853974e-05,        +1.050877833e+04,        +3.285844099e-05,        +3.043358023e+04,        +2.767555187e-07,        +3.613297414e+06
 1.370000000e+01,        +9.515991209e-05,        +1.050862677e+04,        +3.286021322e-05,        +3.043193887e+04,        +2.767525042e-07,        +3.613336771e+06
