         f (GHz),               p_surf[1],               Q_surf[1],               p_surf[2],               Q_surf[2],               p_surf[3],               Q_surf[3]
 2.000000000e+00,        +9.521284136e-05,        +1.050278498e+04,        +3.292995589e-05,        +3.036748678e+04,        +2.766357529e-07,        +3.614861743e+06
 2.100000000e+00,        +9.521184808e-05,        +1.050289455e+04,        +3.292943436e-05,        +3.036796773e+04,        +2.766330399e-07,        +3.614897196e+06
 2.200000000e+00,        +9.521081584e-05,        +1.050300842e+04,        +3.292888887e-05,        +3.036847080e+04,        +2.766302445e-07,        +3.614933724e+06
 2.300000000e+00,        +9.520974582e-05,        +1.050312645e+04,        +3.292831965e-05,        +3.036899577e+04,        +2.766273729e-07,        +3.614971250e+06
 2.400000000e+00,        +9.520863929e-05,        +1.050324852e+04,        +3.292772692e-05,        +3.036954243e+04,        +2.766244312e-07,        +3.615009693e+06
 2.500000000e+00,        +9.520749751e-05,        +1.050337448e+04,        +3.292711093e-05,        +3.037011057e+04,        +2.766214257e-07,        +3.615048970e+06
 2.600000000e+00,        +9.520632183e-05,        +1.050350419e+04,        +3.292647194e-05,        +3.037069996e+04,        +2.766183630e-07,        +3.615088995e+06
 2.700000000e+00,        +9.520511363e-05,        +1.050363748e+04,        +3.292581019e-05,        +3.037131036e+04,        +2.766152498e-07,        +3.615129682e+06
 2.800000000e+00,        +9.520387431e-05,        +1.050377421e+04,        +3.292512597e-05,        +3.037194150e+04,        +2.766120930e-07,        +3.615170939e+06
 2.900000000e+00,        +9.520260536e-05,        +1.050391422e+04,        +3.292441957e-05,        +3.037259314e+04,        +2.766088997e-07,        +3.615212674e+06
 3.000000000e+00,        +9.520130826e-05,        +1.050405733e+04,        +3.292369128e-05,        +3.037326500e+04,        +2.766056772e-07,        +3.615254792e+06
 3.100000000e+00,        +9.519998458e-05,        +1.050420338e+04,        +3.292294140e-05,        +3.037395680e+04,        +2.766024329e-07,        +3.615297196e+06
 3.200000000e+00,        +9.519863591e-05,        +1.050435219e+04,        +3.292217026e-05,        +3.037466825e+04,        +2.765991743e-07,        +3.615339787e+06
 3.300000000e+00,        +9.519726386e-05,        +1.050450359e+04,        +3.292137819e-05,        +3.037539905e+04,        +2.765959092e-07,        +3.615382465e+06
 3.400000000e+00,        +9.519587011e-05,        +1.050465739e+04,        +3.292056553e-05,        +3.037614889e+04,        +2.765926454e-07,        +3.615425126e+06
 3.500000000e+00,        +9.519445635e-05,        +1.050481339e+04,        +3.291973262e-05,        +3.037691744e+04,        +2.765893909e-07,        +3.615467668e+06
 3.600000000e+00,        +9.519302431e-05,        +1.050497142e+04,        +3.291887984e-05,        +3.037770437e+04,        +2.765861538e-07,        +3.615509983e+06
 3.700000000e+00,        +9.519157577e-05,        +1.050513128e+04,        +3.291800755e-05,        +3.037850935e+04,        +2.765829421e-07,        +3.615551965e+06
 3.800000000e+00,        +9.519011252e-05,        +1.050529276e+04,        +3.291711614e-05,        +3.037933201e+04,        +2.765797643e-07,        +3.615593508e+06
 3.900000000e+00,        +9.518863638e-05,        +1.050545567e+04,        +3.291620600e-05,        +3.038017200e+04,        +2.765766284e-07,        +3.615634501e+06
 4.000000000e+00,        +9.518714919e-05,        +1.050561981e+04,        +3.291527755e-05,        +3.038102895e+04,        +2.765735431e-07,        +3.615674836e+06
 4.100000000e+00,        +9.518565282e-05,        +1.050578496e+04,        +3.291433118e-05,        +3.038190247e+04,        +2.765705164e-07,        +3.615714404e+06
 4.200000000e+00,        +9.518414916e-05,        +1.050595093e+04,        +3.291336734e-05,        +3.038279218e+04,        +2.765675570e-07,        +3.615753094e+06
 4.300000000e+00,        +9.518264011e-05,        +1.050611749e+04,        +3.291238646e-05,        +3.038369768e+04,        +2.765646731e-07,        +3.615790798e+06
 4.400000000e+00,        +9.518112759e-05,        +1.050628444e+04,        +3.291138897e-05,        +3.038461856e+04,        +2.765618731e-07,        +3.615827405e+06
 4.500000000e+00,        +9.517961352e-05,        +1.050645157e+04,        +3.291037534e-05,        +3.038555439e+04,        +2.765591653e-07,        +3.615862808e+06
 4.600000000e+00,        +9.517809983e-05,        +1.050661866e+04,        +3.290934603e-05,        +3.038650476e+04,        +2.765565579e-07,        +3.615896898e+06
 4.700000000e+00,        +9.517658845e-05,        +1.050678551e+04,        +3.290830152e-05,        +3.038746923e+04,        +2.765540592e-07,        +3.615929569e+06
 4.800000000e+00,        +9.517508134e-05,        +1.050695188e+04,        +3.290724228e-05,        +3.038844736e+04,        +2.765516771e-07,        +3.615960715e+06
 4.900000000e+00,        +9.517358040e-05,        +1.050711758e+04,        +3.290616881e-05,        +3.038943870e+04,        +2.765494195e-07,        +3.615990234e+06
 5.000000000e+00,        +9.517208757e-05,        +1.050728239e+04,        +3.290508161e-05,        +3.039044279e+04,        +2.765472942e-07,        +3.616018022e+06
 5.100000000e+00,        +9.517060476e-05,        +1.050744610e+04,        +3.290398117e-05,        +3.039145916e+04,        +2.765453089e-07,        +3.616043982e+06
 5.200000000e+00,        +9.516913386e-05,        +1.050760850e+04,        +3.290286802e-05,        +3.039248735e+04,        +2.765434708e-07,        +3.616068016e+06
 5.300000000e+00,        +9.516767674e-05,        +1.050776938e+04,        +3.290174267e-05,        +3.039352687e+04,        +2.765417873e-07,        +3.616090030e+06
 5.400000000e+00,        +9.516623527e-05,        +1.050792854e+04,        +3.290060565e-05,        +3.039457725e+04,        +2.765402651e-07,        +3.616109934e+06
 5.500000000e+00,        +9.516481126e-05,        +1.050808578e+04,        +3.289945750e-05,        +3.039563799e+04,        +2.765389111e-07,        +3.616127640e+06
 5.600000000e+00,        +9.516340650e-05,        +1.050824090e+04,        +3.289829874e-05,        +3.039670859e+04,        +2.765377315e-07,        +3.616143065e+06
 5.700000000e+00,        +9.516202275e-05,        +1.050839370e+04,        +3.289712992e-05,        +3.039778857e+04,        +2.765367325e-07,        +3.616156129e+06
 5.800000000e+00,        +9.516066171e-05,        +1.050854399e+04,        +3.289595159e-05,        +3.039887742e+04,        +2.765359197e-07,        +3.616166757e+06
 5.900000000e+00,        +9.515932506e-05,        +1.050869160e+04,        +3.289476429e-05,        +3.039997463e+04,        +2.765352986e-07,        +3.616174879e+06
 6.000000000e+00,        +9.515801441e-05,        +1.050883634e+04,        +3.289356859e-05,        +3.040107969e+04,        +2.765348742e-07,        +3.616180429e+06
 6.100000000e+00,        +9.515673131e-05,        +1.050897804e+04,        +3.289236503e-05,        +3.040219209e+04,        +2.765346511e-07,        +3.616183346e+06
 6.200000000e+00,        +9.515547727e-05,        +1.050911654e+04,        +3.289115417e-05,        +3.040331132e+04,        +2.765346334e-07,        +3.616183577e+06
 6.300000000e+00,        +9.515425373e-05,        +1.050925167e+04,        +3.288993658e-05,        +3.040443686e+04,        +2.765348250e-07,        +3.616181073e+06
 6.400000000e+00,        +9.515306205e-05,        +1.050938329e+04,        +3.288871280e-05,        +3.040556820e+04,        +2.765352290e-07,        +3.616175790e+06
 6.500000000e+00,        +9.515190353e-05,        +1.050951124e+04,        +3.288748341e-05,        +3.040670481e+04,        +2.765358482e-07,        +3.616167692e+06
 6.600000000e+00,        +9.515077938e-05,        +1.050963541e+04,        +3.288624897e-05,        +3.040784618e+04,        +2.765366851e-07,        +3.616156749e+06
 6.700000000e+00,        +9.514969075e-05,        +1.050975565e+04,        +3.288501003e-05,        +3.040899179e+04,        +2.765377412e-07,        +3.616142938e+06
 6.800000000e+00,        +9.514863867e-05,        +1.050987186e+04,        +3.288376715e-05,        +3.041014113e+04,        +2.765390179e-07,        +3.616126244e+06
 6.900000000e+00,        +9.514762412e-05,        +1.050998392e+04,        +3.288252090e-05,        +3.041129368e+04,        +2.765405158e-07,        +3.616106657e+06
 7.000000000e+00,        +9.514664797e-05,        +1.051009175e+04,        +3.288127184e-05,        +3.041244891e+04,        +2.765422350e-07,        +3.616084176e+06
 7.100000000e+00,        +9.514571097e-05,        +1.051019525e+04,        +3.288002052e-05,        +3.041360633e+04,        +2.765441750e-07,        +3.616058808e+06
 7.200000000e+00,        +9.514481382e-05,        +1.051029436e+04,        +3.287876750e-05,        +3.041476540e+04,        +2.765463348e-07,        +3.616030567e+06
 7.300000000e+00,        +9.514395707e-05,        +1.051038900e+04,        +3.287751333e-05,        +3.041592562e+04,        +2.765487127e-07,        +3.615999475e+06
 7.400000000e+00,        +9.514314118e-05,        +1.051047913e+04,        +3.287625858e-05,        +3.041708647e+04,        +2.765513064e-07,        +3.615965562e+06
 7.500000000e+00,        +9.514236652e-05,        +1.051056471e+04,        +3.287500379e-05,        +3.041824744e+04,        +2.765541130e-07,        +3.615928866e+06
 7.600000000e+00,        +9.514163333e-05,        +1.051064571e+04,        +3.287374953e-05,        +3.041940801e+04,        +2.765571289e-07,        +3.615889433e+06
 7.700000000e+00,        +9.514094174e-05,        +1.051072211e+04,        +3.287249636e-05,        +3.042056767e+04,        +2.765603500e-07,        +3.615847319e+06
 7.800000000e+00,        +9.514029177e-05,        +1.051079392e+04,        +3.287124483e-05,        +3.042172589e+04,        +2.765637715e-07,        +3.615802586e+06
 7.900000000e+00,        +9.513968333e-05,        +1.051086114e+04,        +3.286999552e-05,        +3.042288215e+04,        +2.765673879e-07,        +3.615755305e+06
 8.000000000e+00,        +9.513911621e-05,        +1.051092379e+04,        +3.286874899e-05,        +3.042403592e+04,        +2.765711933e-07,        +3.615705556e+06
 8.100000000e+00,        +9.513859008e-05,        +1.051098192e+04,        +3.286750583e-05,        +3.042518666e+04,        +2.765751808e-07,        +3.615653425e+06
 8.200000000e+00,        +9.513810452e-05,        +1.051103556e+04,        +3.286626663e-05,        +3.042633382e+04,        +2.765793434e-07,        +3.615599010e+06
 8.300000000e+00,        +9.513765896e-05,        +1.051108479e+04,        +3.286503200e-05,        +3.042747684e+04,        +2.765836730e-07,        +3.615542412e+06
 8.400000000e+00,        +9.513725276e-05,        +1.051112967e+04,        +3.286380256e-05,        +3.042861513e+04,        +2.765881611e-07,        +3.615483743e+06
 8.500000000e+00,        +9.513688515e-05,        +1.051117028e+04,        +3.286257896e-05,        +3.042974811e+04,        +2.765927988e-07,        +3.615423121e+06
 8.600000000e+00,        +9.513655525e-05,        +1.051120673e+04,        +3.286136187e-05,        +3.043087514e+04,        +2.765975764e-07,        +3.615360673e+06
 8.700000000e+00,        +9.513626211e-05,        +1.051123912e+04,        +3.286015200e-05,        +3.043199557e+04,        +2.766024838e-07,        +3.615296531e+06
 8.800000000e+00,        +9.513600465e-05,        +1.051126757e+04,        +3.285895008e-05,        +3.043310871e+04,        +2.766075102e-07,        +3.615230835e+06
 8.900000000e+00,        +9.513578173e-05,        +1.051129220e+04,        +3.285775690e-05,        +3.043421385e+04,        +2.766126444e-07,        +3.615163732e+06
 9.000000000e+00,        +9.513559210e-05,        +1.051131315e+04,        +3.285657330e-05,        +3.043531019e+04,        +2.766178750e-07,        +3.615095373e+06
 9.100000000e+00,        +9.513543447e-05,        +1.051133056e+04,        +3.285540017e-05,        +3.043639690e+04,        +2.766231897e-07,        +3.615025917e+06
 9.200000000e+00,        +9.513530747e-05,        +1.051134460e+04,        +3.285423849e-05,        +3.043747309e+04,        +2.766285761e-07,        +3.614955527e+06
 9.300000000e+00,        +9.513520967e-05,        +1.051135540e+04,        +3.285308929e-05,        +3.043853779e+04,        +2.766340213e-07,        +3.614884371e+06
 9.400000000e+00,        +9.513513961e-05,        +1.051136314e+04,        +3.285195373e-05,        +3.043958993e+04,        +2.766395122e-07,        +3.614812620e+06
 9.500000000e+00,        +9.513509580e-05,        +1.051136798e+04,        +3.285083305e-05,        +3.044062835e+04,        +2.766450353e-07,        +3.614740452e+06
 9.600000000e+00,        +9.513507673e-05,        +1.051137009e+04,        +3.284972861e-05,        +3.044165180e+04,        +2.766505769e-07,        +3.614668045e+06
 9.700000000e+00,        +9.513508092e-05,        +1.051136963e+04,        +3.284864192e-05,        +3.044265886e+04,        +2.766561230e-07,        +3.614595582e+06
 9.800000000e+00,        +9.513510687e-05,        +1.051136676e+04,        +3.284757464e-05,        +3.044364800e+04,        +2.766616597e-07,        +3.614523245e+06
 9.900000000e+00,        +9.513515318e-05,        +1.051136164e+04,        +3.284652860e-05,        +3.044461752e+04,        +2.766671726e-07,        +3.614451221e+06
 1.000000000e+01,        +9.513521846e-05,        +1.051135443e+04,        +3.284550582e-05,        +3.044556554e+04,        +2.766726477e-07,        +3.614379695e+06
 1.010000000e+01,        +9.513530145e-05,        +1.051134526e+04,        +3.284450854e-05,        +3.044648997e+04,        +2.766780707e-07,        +3.614308852e+06
 1.020000000e+01,        +9.513540101e-05,        +1.051133426e+04,        +3.284353925e-05,        +3.044738852e+04,        +2.766834275e-07,        +3.614238876e+06
 1.030000000e+01,        +9.513551612e-05,        +1.051132154e+04,        +3.284260069e-05,        +3.044825863e+04,        +2.766887041e-07,        +3.614169951e+06
 1.040000000e+01,        +9.513564597e-05,        +1.051130720e+04,        +3.284169591e-05,        +3.044909747e+04,        +2.766938867e-07,        +3.614102256e+06
 1.050000000e+01,        +9.513578996e-05,        +1.051129129e+04,        +3.284082826e-05,        +3.044990193e+04,        +2.766989618e-07,        +3.614035967e+06
 1.060000000e+01,        +9.513594774e-05,        +1.051127385e+04,        +3.284000145e-05,        +3.045066857e+04,        +2.767039163e-07,        +3.613971257e+06
 1.070000000e+01,        +9.513611926e-05,        +1.051125490e+04,        +3.283921956e-05,        +3.045139359e+04,        +2.767087374e-07,        +3.613908290e+06
 1.080000000e+01,        +9.513630480e-05,        +1.051123440e+04,        +3.283848706e-05,        +3.045207284e+04,        +2.767134128e-07,        +3.613847228e+06
 1.090000000e+01,        +9.513650502e-05,        +1.051121228e+04,        +3.283780885e-05,        +3.045270178e+04,        +2.767179310e-07,        +3.613788222e+06
 1.100000000e+01,        +9.513672099e-05,        +1.051118842e+04,        +3.283719028e-05,        +3.045327544e+04,        +2.767222808e-07,        +3.613731417e+06
 1.110000000e+01,        +9.513695426e-05,        +1.051116265e+04,        +3.283663711e-05,        +3.045378845e+04,        +2.767264520e-07,        +3.613676946e+06
 1.120000000e+01,        +9.513720686e-05,        +1.051113474e+04,        +3.283615560e-05,        +3.045423503e+04,        +2.767304350e-07,        +3.613624934e+06
 1.130000000e+01,        +9.513748137e-05,        +1.051110441e+04,        +3.283575241e-05,        +3.045460897e+04,        +2.767342212e-07,        +3.613575494e+06
 1.140000000e+01,        +9.513778090e-05,        +1.051107132e+04,        +3.283543464e-05,        +3.045490370e+04,        +2.767378027e-07,        +3.613528728e+06
 1.150000000e+01,        +9.513810917e-05,        +1.051103505e+04,        +3.283520972e-05,        +3.045511231e+04,        +2.767411727e-07,        +3.613484724e+06
 1.160000000e+01,        +9.513847043e-05,        +1.051099514e+04,        +3.283508540e-05,        +3.045522763e+04,        +2.767443254e-07,        +3.613443558e+06
 1.170000000e+01,        +9.513886951e-05,        +1.051095105e+04,        +3.283506958e-05,        +3.045524230e+04,        +2.767472559e-07,        +3.613405296e+06
 1.180000000e+01,        +9.513931172e-05,        +1.051090219e+04,        +3.283517022e-05,        +3.045514896e+04,        +2.767499601e-07,        +3.613369988e+06
 1.190000000e+01,        +9.513980281e-05,        +1.051084794e+04,        +3.283539511e-05,        +3.045494037e+04,        +2.767524350e-07,        +3.613337675e+06
 1.200000000e+01,        +9.514034881e-05,        +1.051078762e+04,        +3.283575168e-05,        +3.045460965e+04,        +2.767546781e-07,        +3.613308388e+06
 1.210000000e+01,        +9.514095589e-05,        +1.051072055e+04,        +3.283624670e-05,        +3.045415054e+04,        +2.767566877e-07,        +3.613282152e+06
 1.220000000e+01,        +9.514163017e-05,        +1.051064606e+04,        +3.283688593e-05,        +3.045355769e+04,        +2.767584623e-07,        +3.613258983e+06
 1.230000000e+01,        +9.514237742e-05,        +1.051056351e+04,        +3.283767379e-05,        +3.045282703e+04,        +2.767600006e-07,        +3.613238900e+06
 1.240000000e+01,        +9.514320275e-05,        +1.051047233e+04,        +3.283861295e-05,        +3.045195610e+04,        +2.767613010e-07,        +3.613221922e+06
 1.250000000e+01,        +9.514411031e-05,        +1.051037207e+04,        +3.283970387e-05,        +3.045094450e+04,        +2.767623613e-07,        +3.613208080e+06
 1.260000000e+01,        +9.514510281e-05,        +1.051026244e+04,        +3.284094443e-05,        +3.044979423e+04,        +2.767631783e-07,        +3.613197413e+06
 1.270000000e+01,        +9.514618118e-05,        +1.051014331e+04,        +3.284232949e-05,        +3.044851006e+04,        +2.767637474e-07,        +3.613189984e+06
 1.280000000e+01,        +9.514734417e-05,        +1.051001485e+04,        +3.284385064e-05,        +3.044709985e+04,        +2.767640620e-07,        +3.613185877e+06
 1.290000000e+01,        +9.514858793e-05,        +1.050987746e+04,        +3.284549590e-05,        +3.044557473e+04,        +2.767641132e-07,        +3.613185208e+06
 1.300000000e+01,        +9.514990579e-05,        +1.050973190e+04,        +3.284724975e-05,        +3.044394912e+04,        +2.767638897e-07,        +3.613188126e+06
 1.310000000e+01,        +9.515128804e-05,        +1.050957922e+04,        +3.284909313e-05,        +3.044224070e+04,        +2.767633774e-07,        +3.613194814e+06
 1.320000000e+01,        +9.515272189e-05,        +1.050942086e+04,        +3.285100385e-05,        +3.044047009e+04,        +2.767625593e-07,        +3.613205495e+06
 1.330000000e+01,        +9.515419159e-05,        +1.050925853e+04,        +3.285295703e-05,        +3.043866033e+04,        +2.767614159e-07,        +3.613220423e+06
 1.340000000e+01,        +9.515567873e-05,        +1.050909429e+04,        +3.285492585e-05,        +3.043683631e+04,        +2.767599252e-07,        +3.613239884e+06
 1.350000000e+01,        +9.515716272e-05,        +1.050893040e+04,        +3.285688238e-05,        +3.043502388e+04,        +2.767580636e-07,        +3.613264188e+06
 1.360000000e+01,        +9.515862138e-05,        +1.050876931e+04,        +3.285879860e-05,        +3.043324901e+04,        +2.767558063e-07,        +3.613293660e+06
 1.370000000e+01,        +9.516003166e-05,        +1.050861357e+04,        +3.286064735e-05,        +3.043153683e+04,        +2.767531281e-07,        +3.613328626e+06
