         f (GHz),       Re{Φ_elec[1]} (C),       Im{Φ_elec[1]} (C),            Φ_pow[2] (W),            Φ_pow[3] (W),            Φ_pow[4] (W)
 2.000000000e+00,        +8.325633033e-13,        -2.065812617e-13,        +1.580802828e-05,        +9.845262626e-01,        +9.794832594e-01
 2.100000000e+00,        +8.288004162e-13,        -2.162326554e-13,        +1.740357803e-05,        +9.839898366e-01,        +9.789468433e-01
 2.200000000e+00,        +8.248776643e-13,        -2.257892241e-13,        +1.907211565e-05,        +9.834346874e-01,        +9.783914555e-01
 2.300000000e+00,        +8.207982005e-13,        -2.352475056e-13,        +2.081293108e-05,        +9.828616929e-01,        +9.778180415e-01
 2.400000000e+00,        +8.165652666e-13,        -2.446041591e-13,        +2.262529812e-05,        +9.822717802e-01,        +9.772275740e-01
 2.500000000e+00,        +8.121821898e-13,        -2.538559705e-13,        +2.450846968e-05,        +9.816659159e-01,        +9.766210512e-01
 2.600000000e+00,        +8.076523769e-13,        -2.629998564e-13,        +2.646167508e-05,        +9.810450984e-01,        +9.759994945e-01
 2.700000000e+00,        +8.029793092e-13,        -2.720328677e-13,        +2.848411963e-05,        +9.804103540e-01,        +9.753639469e-01
 2.800000000e+00,        +7.981665362e-13,        -2.809521916e-13,        +3.057498400e-05,        +9.797627321e-01,        +9.747154706e-01
 2.900000000e+00,        +7.932176697e-13,        -2.897551532e-13,        +3.273342465e-05,        +9.791033029e-01,        +9.740551454e-01
 3.000000000e+00,        +7.881363769e-13,        -2.984392173e-13,        +3.495857417e-05,        +9.784331542e-01,        +9.733840665e-01
 3.100000000e+00,        +7.829263750e-13,        -3.070019891e-13,        +3.724954142e-05,        +9.777533887e-01,        +9.727033422e-01
 3.200000000e+00,        +7.775914248e-13,        -3.154412150e-13,        +3.960541216e-05,        +9.770651219e-01,        +9.720140923e-01
 3.300000000e+00,        +7.721353241e-13,        -3.237547826e-13,        +4.202524969e-05,        +9.763694796e-01,        +9.713174457e-01
 3.400000000e+00,        +7.665619019e-13,        -3.319407209e-13,        +4.450809519e-05,        +9.756675959e-01,        +9.706145387e-01
 3.500000000e+00,        +7.608750127e-13,        -3.399971999e-13,        +4.705296841e-05,        +9.749606109e-01,        +9.699065130e-01
 3.600000000e+00,        +7.550785300e-13,        -3.479225297e-13,        +4.965886822e-05,        +9.742496685e-01,        +9.691945134e-01
 3.700000000e+00,        +7.491763410e-13,        -3.557151599e-13,        +5.232477329e-05,        +9.735359151e-01,        +9.684796861e-01
 3.800000000e+00,        +7.431723406e-13,        -3.633736782e-13,        +5.504964258e-05,        +9.728204966e-01,        +9.677631769e-01
 3.900000000e+00,        +7.370704261e-13,        -3.708968091e-13,        +5.783241597e-05,        +9.721045572e-01,        +9.670461291e-01
 4.000000000e+00,        +7.308744919e-13,        -3.782834121e-13,        +6.067201507e-05,        +9.713892374e-01,        +9.663296818e-01
 4.100000000e+00,        +7.245884240e-13,        -3.855324797e-13,        +6.356734356e-05,        +9.706756720e-01,        +9.656149680e-01
 4.200000000e+00,        +7.182160951e-13,        -3.926431356e-13,        +6.651728803e-05,        +9.699649882e-01,        +9.649031128e-01
 4.300000000e+00,        +7.117613600e-13,        -3.996146323e-13,        +6.952071857e-05,        +9.692583044e-01,        +9.641952320e-01
 4.400000000e+00,        +7.052280505e-13,        -4.064463483e-13,        +7.257648944e-05,        +9.685567279e-01,        +9.634924299e-01
 4.500000000e+00,        +6.986199712e-13,        -4.131377858e-13,        +7.568343968e-05,        +9.678613536e-01,        +9.627957983e-01
 4.600000000e+00,        +6.919408952e-13,        -4.196885679e-13,        +7.884039385e-05,        +9.671732623e-01,        +9.621064143e-01
 4.700000000e+00,        +6.851945600e-13,        -4.260984352e-13,        +8.204616262e-05,        +9.664935192e-01,        +9.614253392e-01
 4.800000000e+00,        +6.783846634e-13,        -4.323672433e-13,        +8.529954359e-05,        +9.658231724e-01,        +9.607536169e-01
 4.900000000e+00,        +6.715148601e-13,        -4.384949591e-13,        +8.859932183e-05,        +9.651632514e-01,        +9.600922726e-01
 5.000000000e+00,        +6.645887583e-13,        -4.444816578e-13,        +9.194427071e-05,        +9.645147658e-01,        +9.594423111e-01
 5.100000000e+00,        +6.576099161e-13,        -4.503275196e-13,        +9.533315261e-05,        +9.638787039e-01,        +9.588047158e-01
 5.200000000e+00,        +6.505818387e-13,        -4.560328257e-13,        +9.876471963e-05,        +9.632560315e-01,        +9.581804473e-01
 5.300000000e+00,        +6.435079755e-13,        -4.615979552e-13,        +1.022377144e-04,        +9.626476905e-01,        +9.575704423e-01
 5.400000000e+00,        +6.363917174e-13,        -4.670233817e-13,        +1.057508708e-04,        +9.620545979e-01,        +9.569756124e-01
 5.500000000e+00,        +6.292363943e-13,        -4.723096691e-13,        +1.093029148e-04,        +9.614776447e-01,        +9.563968429e-01
 5.600000000e+00,        +6.220452733e-13,        -4.774574681e-13,        +1.128925654e-04,        +9.609176946e-01,        +9.558349918e-01
 5.700000000e+00,        +6.148215560e-13,        -4.824675129e-13,        +1.165185352e-04,        +9.603755831e-01,        +9.552908890e-01
 5.800000000e+00,        +6.075683772e-13,        -4.873406171e-13,        +1.201795316e-04,        +9.598521166e-01,        +9.547653349e-01
 5.900000000e+00,        +6.002888028e-13,        -4.920776700e-13,        +1.238742576e-04,        +9.593480714e-01,        +9.542591001e-01
 6.000000000e+00,        +5.929858287e-13,        -4.966796333e-13,        +1.276014127e-04,        +9.588641929e-01,        +9.537729240e-01
 6.100000000e+00,        +5.856623793e-13,        -5.011475368e-13,        +1.313596938e-04,        +9.584011946e-01,        +9.533075145e-01
 6.200000000e+00,        +5.783213065e-13,        -5.054824754e-13,        +1.351477967e-04,        +9.579597574e-01,        +9.528635468e-01
 6.300000000e+00,        +5.709653887e-13,        -5.096856049e-13,        +1.389644167e-04,        +9.575405290e-01,        +9.524416628e-01
 6.400000000e+00,        +5.635973300e-13,        -5.137581387e-13,        +1.428082499e-04,        +9.571441230e-01,        +9.520424708e-01
 6.500000000e+00,        +5.562197594e-13,        -5.177013445e-13,        +1.466779943e-04,        +9.567711184e-01,        +9.516665445e-01
 6.600000000e+00,        +5.488352309e-13,        -5.215165402e-13,        +1.505723515e-04,        +9.564220587e-01,        +9.513144225e-01
 6.700000000e+00,        +5.414462223e-13,        -5.252050909e-13,        +1.544900273e-04,        +9.560974519e-01,        +9.509866079e-01
 6.800000000e+00,        +5.340551359e-13,        -5.287684056e-13,        +1.584297337e-04,        +9.557977694e-01,        +9.506835677e-01
 6.900000000e+00,        +5.266642980e-13,        -5.322079335e-13,        +1.623901901e-04,        +9.555234458e-01,        +9.504057322e-01
 7.000000000e+00,        +5.192759588e-13,        -5.355251610e-13,        +1.663701248e-04,        +9.552748784e-01,        +9.501534951e-01
 7.100000000e+00,        +5.118922930e-13,        -5.387216087e-13,        +1.703682767e-04,        +9.550524268e-01,        +9.499272127e-01
 7.200000000e+00,        +5.045153998e-13,        -5.417988279e-13,        +1.743833973e-04,        +9.548564123e-01,        +9.497272034e-01
 7.300000000e+00,        +4.971473037e-13,        -5.447583980e-13,        +1.784142518e-04,        +9.546871181e-01,        +9.495537480e-01
 7.400000000e+00,        +4.897899545e-13,        -5.476019232e-13,        +1.824596218e-04,        +9.545447883e-01,        +9.494070890e-01
 7.500000000e+00,        +4.824452282e-13,        -5.503310302e-13,        +1.865183069e-04,        +9.544296282e-01,        +9.492874303e-01
 7.600000000e+00,        +4.751149280e-13,        -5.529473647e-13,        +1.905891269e-04,        +9.543418038e-01,        +9.491949375e-01
 7.700000000e+00,        +4.678007844e-13,        -5.554525893e-13,        +1.946709241e-04,        +9.542814414e-01,        +9.491297372e-01
 7.800000000e+00,        +4.605044566e-13,        -5.578483809e-13,        +1.987625657e-04,        +9.542486280e-01,        +9.490919171e-01
 7.900000000e+00,        +4.532275334e-13,        -5.601364279e-13,        +2.028629464e-04,        +9.542434105e-01,        +9.490815260e-01
 8.000000000e+00,        +4.459715340e-13,        -5.623184281e-13,        +2.069709906e-04,        +9.542657961e-01,        +9.490985736e-01
 8.100000000e+00,        +4.387379092e-13,        -5.643960861e-13,        +2.110856559e-04,        +9.543157520e-01,        +9.491430305e-01
 8.200000000e+00,        +4.315280424e-13,        -5.663711114e-13,        +2.152059352e-04,        +9.543932054e-01,        +9.492148283e-01
 8.300000000e+00,        +4.243432511e-13,        -5.682452161e-13,        +2.193308603e-04,        +9.544980434e-01,        +9.493138594e-01
 8.400000000e+00,        +4.171847878e-13,        -5.700201130e-13,        +2.234595047e-04,        +9.546301131e-01,        +9.494399774e-01
 8.500000000e+00,        +4.100538412e-13,        -5.716975133e-13,        +2.275909872e-04,        +9.547892218e-01,        +9.495929970e-01
 8.600000000e+00,        +4.029515381e-13,        -5.732791254e-13,        +2.317244749e-04,        +9.549751370e-01,        +9.497726941e-01
 8.700000000e+00,        +3.958789439e-13,        -5.747666525e-13,        +2.358591867e-04,        +9.551875862e-01,        +9.499788063e-01
 8.800000000e+00,        +3.888370647e-13,        -5.761617913e-13,        +2.399943968e-04,        +9.554262578e-01,        +9.502110325e-01
 8.900000000e+00,        +3.818268484e-13,        -5.774662301e-13,        +2.441294385e-04,        +9.556908007e-01,        +9.504690338e-01
 9.000000000e+00,        +3.748491858e-13,        -5.786816480e-13,        +2.482637070e-04,        +9.559808247e-01,        +9.507524336e-01
 9.100000000e+00,        +3.679049126e-13,        -5.798097124e-13,        +2.523966632e-04,        +9.562959009e-01,        +9.510608175e-01
 9.200000000e+00,        +3.609948107e-13,        -5.808520789e-13,        +2.565278370e-04,        +9.566355621e-01,        +9.513937343e-01
 9.300000000e+00,        +3.541196092e-13,        -5.818103890e-13,        +2.606568299e-04,        +9.569993032e-01,        +9.517506962e-01
 9.400000000e+00,        +3.472799865e-13,        -5.826862699e-13,        +2.647833176e-04,        +9.573865812e-01,        +9.521311788e-01
 9.500000000e+00,        +3.404765713e-13,        -5.834813325e-13,        +2.689070522e-04,        +9.577968165e-01,        +9.525346225e-01
 9.600000000e+00,        +3.337099443e-13,        -5.841971713e-13,        +2.730278633e-04,        +9.582293927e-01,        +9.529604321e-01
 9.700000000e+00,        +3.269806396e-13,        -5.848353630e-13,        +2.771456586e-04,        +9.586836579e-01,        +9.534079781e-01
 9.800000000e+00,        +3.202891460e-13,        -5.853974659e-13,        +2.812604227e-04,        +9.591589249e-01,        +9.538765972e-01
 9.900000000e+00,        +3.136359085e-13,        -5.858850191e-13,        +2.853722152e-04,        +9.596544722e-01,        +9.543655926e-01
 1.000000000e+01,        +3.070213300e-13,        -5.862995420e-13,        +2.894811664e-04,        +9.601695450e-01,        +9.548742354e-01
 1.010000000e+01,        +3.004457719e-13,        -5.866425335e-13,        +2.935874704e-04,        +9.607033558e-01,        +9.554017649e-01
 1.020000000e+01,        +2.939095562e-13,        -5.869154719e-13,        +2.976913760e-04,        +9.612550858e-01,        +9.559473900e-01
 1.030000000e+01,        +2.874129664e-13,        -5.871198144e-13,        +3.017931735e-04,        +9.618238861e-01,        +9.565102896e-01
 1.040000000e+01,        +2.809562486e-13,        -5.872569967e-13,        +3.058931776e-04,        +9.624088786e-01,        +9.570896141e-01
 1.050000000e+01,        +2.745396129e-13,        -5.873284329e-13,        +3.099917049e-04,        +9.630091579e-01,        +9.576844864e-01
 1.060000000e+01,        +2.681632344e-13,        -5.873355152e-13,        +3.140890456e-04,        +9.636237925e-01,        +9.582940029e-01
 1.070000000e+01,        +2.618272539e-13,        -5.872796142e-13,        +3.181854278e-04,        +9.642518270e-01,        +9.589172350e-01
 1.080000000e+01,        +2.555317790e-13,        -5.871620786e-13,        +3.222809741e-04,        +9.648922833e-01,        +9.595532303e-01
 1.090000000e+01,        +2.492768848e-13,        -5.869842350e-13,        +3.263756474e-04,        +9.655441633e-01,        +9.602010141e-01
 1.100000000e+01,        +2.430626144e-13,        -5.867473886e-13,        +3.304691875e-04,        +9.662064511e-01,        +9.608595910e-01
 1.110000000e+01,        +2.368889790e-13,        -5.864528227e-13,        +3.345610340e-04,        +9.668781151e-01,        +9.615279463e-01
 1.120000000e+01,        +2.307559587e-13,        -5.861017989e-13,        +3.386502369e-04,        +9.675581110e-01,        +9.622050479e-01
 1.130000000e+01,        +2.246635021e-13,        -5.856955571e-13,        +3.427353526e-04,        +9.682453846e-01,        +9.628898480e-01
 1.140000000e+01,        +2.186115261e-13,        -5.852353153e-13,        +3.468143252e-04,        +9.689388750e-01,        +9.635812850e-01
 1.150000000e+01,        +2.125999157e-13,        -5.847222692e-13,        +3.508843528e-04,        +9.696375176e-01,        +9.642782851e-01
 1.160000000e+01,        +2.066285233e-13,        -5.841575918e-13,        +3.549417413e-04,        +9.703402477e-01,        +9.649797646e-01
 1.170000000e+01,        +2.006971676e-13,        -5.835424326e-13,        +3.589817457e-04,        +9.710460035e-01,        +9.656846316e-01
 1.180000000e+01,        +1.948056332e-13,        -5.828779159e-13,        +3.629984054e-04,        +9.717537302e-01,        +9.663917880e-01
 1.190000000e+01,        +1.889536694e-13,        -5.821651397e-13,        +3.669843775e-04,        +9.724623826e-01,        +9.671001311e-01
 1.200000000e+01,        +1.831409887e-13,        -5.814051727e-13,        +3.709307785e-04,        +9.731709284e-01,        +9.678085558e-01
 1.210000000e+01,        +1.773672634e-13,        -5.805990193e-13,        +3.748270542e-04,        +9.738784208e-01,        +9.685159194e-01
 1.220000000e+01,        +1.716321377e-13,        -5.797477440e-13,        +3.786608223e-04,        +9.745837252e-01,        +9.692211851e-01
 1.230000000e+01,        +1.659352088e-13,        -5.788522784e-13,        +3.824179057e-04,        +9.752859255e-01,        +9.699232147e-01
 1.240000000e+01,        +1.602760400e-13,        -5.779135399e-13,        +3.860822747e-04,        +9.759840582e-01,        +9.706209055e-01
 1.250000000e+01,        +1.546541594e-13,        -5.769323961e-13,        +3.896361641e-04,        +9.766771768e-01,        +9.713131568e-01
 1.260000000e+01,        +1.490690632e-13,        -5.759096586e-13,        +3.930602785e-04,        +9.773643481e-01,        +9.719988707e-01
 1.270000000e+01,        +1.435202199e-13,        -5.748460779e-13,        +3.963341175e-04,        +9.780446487e-01,        +9.726769508e-01
 1.280000000e+01,        +1.380070766e-13,        -5.737423379e-13,        +3.994364284e-04,        +9.787171581e-01,        +9.733463024e-01
 1.290000000e+01,        +1.325290664e-13,        -5.725990513e-13,        +4.023457852e-04,        +9.793809523e-01,        +9.740058310e-01
 1.300000000e+01,        +1.270856178e-13,        -5.714167570e-13,        +4.050412783e-04,        +9.800350953e-01,        +9.746544416e-01
 1.310000000e+01,        +1.216761648e-13,        -5.701959184e-13,        +4.075032865e-04,        +9.806786309e-01,        +9.752910384e-01
 1.320000000e+01,        +1.163001578e-13,        -5.689369247e-13,        +4.097142879e-04,        +9.813105749e-01,        +9.759145241e-01
 1.330000000e+01,        +1.109570748e-13,        -5.676400947e-13,        +4.116596553e-04,        +9.819299078e-01,        +9.765238003e-01
 1.340000000e+01,        +1.056464313e-13,        -5.663056830e-13,        +4.133283745e-04,        +9.825355708e-01,        +9.771177689e-01
 1.350000000e+01,        +1.003677892e-13,        -5.649338885e-13,        +4.147136241e-04,        +9.831264634e-01,        +9.776953343e-01
 1.360000000e+01,        +9.512076312e-14,        -5.635248648e-13,        +4.158131634e-04,        +9.837014450e-01,        +9.782554062e-01
 1.370000000e+01,        +8.990502470e-14,        -5.620787326e-13,        +4.166294911e-04,        +9.842593392e-01,        +9.787969044e-01
 1.380000000e+01,        +8.472030294e-14,        -5.605955914e-13,        +4.171697578e-04,        +9.847989422e-01,        +9.793187638e-01
 1.390000000e+01,        +7.956638237e-14,        -5.590755316e-13,        +4.174454401e-04,        +9.853190336e-01,        +9.798199393e-01
 1.400000000e+01,        +7.444309822e-14,        -5.575186447e-13,        +4.174718044e-04,        +9.858183894e-01,        +9.802994131e-01
 1.410000000e+01,        +6.935032979e-14,        -5.559250335e-13,        +4.172672168e-04,        +9.862957963e-01,        +9.807561995e-01
 1.420000000e+01,        +6.428799096e-14,        -5.542948141e-13,        +4.168523467e-04,        +9.867500661e-01,        +9.811893512e-01
 1.430000000e+01,        +5.925602294e-14,        -5.526281254e-13,        +4.162493407e-04,        +9.871800498e-01,        +9.815979644e-01
 1.440000000e+01,        +5.425438414e-14,        -5.509251265e-13,        +4.154810164e-04,        +9.875846500e-01,        +9.819811832e-01
 1.450000000e+01,        +4.928304217e-14,        -5.491859972e-13,        +4.145701294e-04,        +9.879628317e-01,        +9.823382032e-01
 1.460000000e+01,        +4.434196670e-14,        -5.474109348e-13,        +4.135387476e-04,        +9.883136303e-01,        +9.826682744e-01
 1.470000000e+01,        +3.943112377e-14,        -5.456001508e-13,        +4.124077533e-04,        +9.886361582e-01,        +9.829707030e-01
 1.480000000e+01,        +3.455047154e-14,        -5.437538655e-13,        +4.111964790e-04,        +9.889296088e-01,        +9.832448532e-01
 1.490000000e+01,        +2.969995773e-14,        -5.418723036e-13,        +4.099224717e-04,        +9.891932584e-01,        +9.834901474e-01
 1.500000000e+01,        +2.487951827e-14,        -5.399556888e-13,        +4.086013733e-04,        +9.894264669e-01,        +9.837060666e-01
 1.510000000e+01,        +2.008907729e-14,        -5.380042392e-13,        +4.072468983e-04,        +9.896286769e-01,        +9.838921506e-01
 1.520000000e+01,        +1.532854802e-14,        -5.360181631e-13,        +4.058708878e-04,        +9.897994124e-01,        +9.840479975e-01
 1.530000000e+01,        +1.059783438e-14,        -5.339976556e-13,        +4.044834208e-04,        +9.899382762e-01,        +9.841732635e-01
 1.540000000e+01,        +5.896833159e-15,        -5.319428958e-13,        +4.030929637e-04,        +9.900449476e-01,        +9.842676620e-01
 1.550000000e+01,        +1.225436423e-15,        -5.298540444e-13,        +4.017065418e-04,        +9.901191797e-01,        +9.843309635e-01
 1.560000000e+01,        -3.416465871e-15,        -5.277312424e-13,        +4.003299207e-04,        +9.901607966e-01,        +9.843629948e-01
 1.570000000e+01,        -8.028983258e-15,        -5.255746102e-13,        +3.989677869e-04,        +9.901696907e-01,        +9.843636384e-01
 1.580000000e+01,        -1.261222221e-14,        -5.233842467e-13,        +3.976239216e-04,        +9.901458207e-01,        +9.843328326e-01
