        f (GHz),          Re{Φ_elec[1]} (C),          Im{Φ_elec[1]} (C),               Φ_pow[2] (W),               Φ_pow[3] (W),               Φ_pow[4] (W)
 2.00000000e+00,        +9.116488664821e-13,        -2.338849623674e-13,        +7.909524738785e-06,        +4.975142483404e-01,        +4.890110956190e-01
 2.10000000e+00,        +9.073546244571e-13,        -2.448219307107e-13,        +8.707488524970e-06,        +4.972598639977e-01,        +4.887593710663e-01
 2.20000000e+00,        +9.028766933625e-13,        -2.556529482866e-13,        +9.541805154835e-06,        +4.969965050459e-01,        +4.884987454851e-01
 2.30000000e+00,        +8.982184859910e-13,        -2.663740738106e-13,        +1.041212857265e-05,        +4.967246277961e-01,        +4.882296584900e-01
 2.40000000e+00,        +8.933835136745e-13,        -2.769815026047e-13,        +1.131810349774e-05,        +4.964447037621e-01,        +4.879525605488e-01
 2.50000000e+00,        +8.883753790811e-13,        -2.874715694715e-13,        +1.225936746193e-05,        +4.961572195610e-01,        +4.876679113539e-01
 2.60000000e+00,        +8.831977672099e-13,        -2.978407496869e-13,        +1.323555356254e-05,        +4.958626774323e-01,        +4.873761779946e-01
 2.70000000e+00,        +8.778544364601e-13,        -3.080856597068e-13,        +1.424629427896e-05,        +4.955615968042e-01,        +4.870778326625e-01
 2.80000000e+00,        +8.723492081541e-13,        -3.182030561822e-13,        +1.529122688444e-05,        +4.952545168474e-01,        +4.867733497802e-01
 2.90000000e+00,        +8.666859547466e-13,        -3.281898330123e-13,        +1.637000132455e-05,        +4.949420020276e-01,        +4.864632021353e-01
 3.00000000e+00,        +8.608685852989e-13,        -3.380430145488e-13,        +1.748229198643e-05,        +4.946246519601e-01,        +4.861478555144e-01
 3.10000000e+00,        +8.549010274799e-13,        -3.477597420684e-13,        +1.862781566625e-05,        +4.943031210968e-01,        +4.858277608617e-01
 3.20000000e+00,        +8.487872039562e-13,        -3.573372488457e-13,        +1.980635965841e-05,        +4.939781544334e-01,        +4.855033424506e-01
 3.30000000e+00,        +8.425310014616e-13,        -3.667728093686e-13,        +2.101782564899e-05,        +4.936506621086e-01,        +4.851749794498e-01
 3.40000000e+00,        +8.361362328979e-13,        -3.760636357200e-13,        +2.226229671306e-05,        +4.933218746855e-01,        +4.848429775338e-01
 3.50000000e+00,        +8.296066100697e-13,        -3.852066532698e-13,        +2.354012488376e-05,        +4.929936891759e-01,        +4.845075291686e-01
 3.60000000e+00,        +8.229458258220e-13,        -3.941979926255e-13,        +2.485196354534e-05,        +4.926694790101e-01,        +4.841686851053e-01
 3.70000000e+00,        +8.161582298441e-13,        -4.030318562299e-13,        +2.619824931930e-05,        +4.923559921973e-01,        +4.838265062869e-01
 3.80000000e+00,        +8.092522489279e-13,        -4.116987022122e-13,        +2.757552876120e-05,        +4.920668231919e-01,        +4.834823408932e-01
 3.90000000e+00,        +8.022523436830e-13,        -4.201895596881e-13,        +2.896069254022e-05,        +4.918178488311e-01,        +4.831446882101e-01
 4.00000000e+00,        +7.951976130720e-13,        -4.285364411785e-13,        +3.030151582131e-05,        +4.915636670826e-01,        +4.828339045031e-01
 4.10000000e+00,        +7.880452299349e-13,        -4.367997869888e-13,        +3.163776581229e-05,        +4.911995107132e-01,        +4.825377991569e-01
 4.20000000e+00,        +7.807386483593e-13,        -4.449312197350e-13,        +3.305596986557e-05,        +4.907887637639e-01,        +4.822237607996e-01
 4.30000000e+00,        +7.733063861730e-13,        -4.528892465910e-13,        +3.453712634556e-05,        +4.903998793743e-01,        +4.818977299240e-01
 4.40000000e+00,        +7.657735128064e-13,        -4.606745533018e-13,        +3.605479700391e-05,        +4.900348206200e-01,        +4.815696611489e-01
 4.50000000e+00,        +7.581502712233e-13,        -4.682925871691e-13,        +3.759928914218e-05,        +4.896855748179e-01,        +4.812435601687e-01
 4.60000000e+00,        +7.504420250532e-13,        -4.757464277808e-13,        +3.916749785288e-05,        +4.893471447275e-01,        +4.809209505244e-01
 4.70000000e+00,        +7.426529193277e-13,        -4.830375286331e-13,        +4.075823534641e-05,        +4.890170548303e-01,        +4.806025936404e-01
 4.80000000e+00,        +7.347868261984e-13,        -4.901665725998e-13,        +4.237083696393e-05,        +4.886941799766e-01,        +4.802890217705e-01
 4.90000000e+00,        +7.268475680049e-13,        -4.971339147757e-13,        +4.400476171250e-05,        +4.883780873169e-01,        +4.799806965943e-01
 5.00000000e+00,        +7.188389587398e-13,        -5.039397937762e-13,        +4.565947826805e-05,        +4.880687074286e-01,        +4.796780568698e-01
 5.10000000e+00,        +7.107648015044e-13,        -5.105844338255e-13,        +4.733443491892e-05,        +4.877661681007e-01,        +4.793815321574e-01
 5.20000000e+00,        +7.026288772341e-13,        -5.170680956257e-13,        +4.902905456111e-05,        +4.874707068097e-01,        +4.790915458600e-01
 5.30000000e+00,        +6.944349334829e-13,        -5.233911016956e-13,        +5.074273691940e-05,        +4.871826227683e-01,        +4.788085148905e-01
 5.40000000e+00,        +6.861866751393e-13,        -5.295538491507e-13,        +5.247486215720e-05,        +4.869022491733e-01,        +4.785328484449e-01
 5.50000000e+00,        +6.778877570100e-13,        -5.355568155313e-13,        +5.422479435690e-05,        +4.866299364849e-01,        +4.782649466342e-01
 5.60000000e+00,        +6.695417779526e-13,        -5.414005606270e-13,        +5.599188450825e-05,        +4.863660421176e-01,        +4.780051992089e-01
 5.70000000e+00,        +6.611522762077e-13,        -5.470857263079e-13,        +5.777547283410e-05,        +4.861109235473e-01,        +4.777539844839e-01
 5.80000000e+00,        +6.527227255853e-13,        -5.526130348302e-13,        +5.957489076215e-05,        +4.858649338486e-01,        +4.775116683671e-01
 5.90000000e+00,        +6.442565324104e-13,        -5.579832864738e-13,        +6.138946241455e-05,        +4.856284184244e-01,        +4.772786035815e-01
 6.00000000e+00,        +6.357570329419e-13,        -5.631973565941e-13,        +6.321850593235e-05,        +4.854017127539e-01,        +4.770551289370e-01
 6.10000000e+00,        +6.272274913087e-13,        -5.682561923798e-13,        +6.506133452150e-05,        +4.851851406636e-01,        +4.768415687447e-01
 6.20000000e+00,        +6.186710977679e-13,        -5.731608093875e-13,        +6.691725740650e-05,        +4.849790130404e-01,        +4.766382322633e-01
 6.30000000e+00,        +6.100909672922e-13,        -5.779122880727e-13,        +6.878558062450e-05,        +4.847836267716e-01,        +4.764454132340e-01
 6.40000000e+00,        +6.014901384619e-13,        -5.825117700640e-13,        +7.066560779775e-05,        +4.845992639542e-01,        +4.762633894575e-01
 6.50000000e+00,        +5.928715725613e-13,        -5.869604546033e-13,        +7.255664079995e-05,        +4.844261911968e-01,        +4.760924224115e-01
 6.60000000e+00,        +5.842381529130e-13,        -5.912595948885e-13,        +7.445798043165e-05,        +4.842646590553e-01,        +4.759327569088e-01
 6.70000000e+00,        +5.755926844342e-13,        -5.954104944507e-13,        +7.636892702865e-05,        +4.841149015644e-01,        +4.757846207981e-01
 6.80000000e+00,        +5.669378933565e-13,        -5.994145035938e-13,        +7.828878108440e-05,        +4.839771358079e-01,        +4.756482246889e-01
 6.90000000e+00,        +5.582764271200e-13,        -6.032730158753e-13,        +8.021684384615e-05,        +4.838515615757e-01,        +4.755237617010e-01
 7.00000000e+00,        +5.496108544346e-13,        -6.069874646550e-13,        +8.215241792920e-05,        +4.837383610536e-01,        +4.754114072523e-01
 7.10000000e+00,        +5.409436654783e-13,        -6.105593196932e-13,        +8.409480792870e-05,        +4.836376985465e-01,        +4.753113188547e-01
 7.20000000e+00,        +5.322772722562e-13,        -6.139900838519e-13,        +8.604332101530e-05,        +4.835497202571e-01,        +4.752236359533e-01
 7.30000000e+00,        +5.236140090663e-13,        -6.172812898632e-13,        +8.799726757245e-05,        +4.834745540617e-01,        +4.751484797722e-01
 7.40000000e+00,        +5.149561330828e-13,        -6.204344971959e-13,        +8.995596183840e-05,        +4.834123093422e-01,        +4.750859531848e-01
 7.50000000e+00,        +5.063058250935e-13,        -6.234512889614e-13,        +9.191872255915e-05,        +4.833630768450e-01,        +4.750361406127e-01
 7.60000000e+00,        +4.976651902791e-13,        -6.263332690101e-13,        +9.388487363750e-05,        +4.833269285332e-01,        +4.749991079362e-01
 7.70000000e+00,        +4.890362591307e-13,        -6.290820590156e-13,        +9.585374485530e-05,        +4.833039174897e-01,        +4.749749024223e-01
 7.80000000e+00,        +4.804209884558e-13,        -6.316992957207e-13,        +9.782467254475e-05,        +4.832940778327e-01,        +4.749635526833e-01
 7.90000000e+00,        +4.718212624492e-13,        -6.341866282597e-13,        +9.979700031650e-05,        +4.832974246480e-01,        +4.749650686439e-01
 8.00000000e+00,        +4.632388938422e-13,        -6.365457155826e-13,        +1.017700798059e-04,        +4.833139539339e-01,        +4.749794415282e-01
 8.10000000e+00,        +4.546756251562e-13,        -6.387782239583e-13,        +1.037432714005e-04,        +4.833436425903e-01,        +4.750066438739e-01
 8.20000000e+00,        +4.461331299505e-13,        -6.408858246137e-13,        +1.057159450213e-04,        +4.833864483965e-01,        +4.750466295505e-01
 8.30000000e+00,        +4.376130142101e-13,        -6.428701914262e-13,        +1.076874808746e-04,        +4.834423100310e-01,        +4.750993338134e-01
 8.40000000e+00,        +4.291168177058e-13,        -6.447329987579e-13,        +1.096572702216e-04,        +4.835111470796e-01,        +4.751646733554e-01
 8.50000000e+00,        +4.206460154709e-13,        -6.464759193448e-13,        +1.116247161439e-04,        +4.835928601077e-01,        +4.752425464036e-01
 8.60000000e+00,        +4.122020192773e-13,        -6.481006222956e-13,        +1.135892343019e-04,        +4.836873307017e-01,        +4.753328328090e-01
 8.70000000e+00,        +4.037861791622e-13,        -6.496087711934e-13,        +1.155502536547e-04,        +4.837944215656e-01,        +4.754353941753e-01
 8.80000000e+00,        +3.953997849826e-13,        -6.510020222809e-13,        +1.175072171591e-04,        +4.839139766104e-01,        +4.755500739964e-01
 8.90000000e+00,        +3.870440680059e-13,        -6.522820227235e-13,        +1.194595824179e-04,        +4.840458210801e-01,        +4.756766978182e-01
 9.00000000e+00,        +3.787202025313e-13,        -6.534504089769e-13,        +1.214068222394e-04,        +4.841897616874e-01,        +4.758150734236e-01
 9.10000000e+00,        +3.704293075218e-13,        -6.545088052184e-13,        +1.233484251395e-04,        +4.843455867735e-01,        +4.759649910335e-01
 9.20000000e+00,        +3.621724482441e-13,        -6.554588218853e-13,        +1.252838956941e-04,        +4.845130664768e-01,        +4.761262235310e-01
 9.30000000e+00,        +3.539506379778e-13,        -6.563020542683e-13,        +1.272127547446e-04,        +4.846919529403e-01,        +4.762985267176e-01
 9.40000000e+00,        +3.457648396672e-13,        -6.570400811914e-13,        +1.291345394255e-04,        +4.848819805209e-01,        +4.764816395758e-01
 9.50000000e+00,        +3.376159676512e-13,        -6.576744637645e-13,        +1.310488029383e-04,        +4.850828660324e-01,        +4.766752845723e-01
 9.60000000e+00,        +3.295048893725e-13,        -6.582067442019e-13,        +1.329551140350e-04,        +4.852943090052e-01,        +4.768791679774e-01
 9.70000000e+00,        +3.214324270976e-13,        -6.586384447165e-13,        +1.348530561356e-04,        +4.855159919623e-01,        +4.770929802095e-01
 9.80000000e+00,        +3.133993597005e-13,        -6.589710664624e-13,        +1.367422260247e-04,        +4.857475807390e-01,        +4.773163962185e-01
 9.90000000e+00,        +3.054064243905e-13,        -6.592060885613e-13,        +1.386222319895e-04,        +4.859887247994e-01,        +4.775490758804e-01
 1.00000000e+01,        +2.974543184994e-13,        -6.593449671749e-13,        +1.404926913530e-04,        +4.862390575966e-01,        +4.777906644329e-01
 1.01000000e+01,        +2.895437013117e-13,        -6.593891346317e-13,        +1.423532272360e-04,        +4.864981969525e-01,        +4.780407929359e-01
 1.02000000e+01,        +2.816751958711e-13,        -6.593399986330e-13,        +1.442034644318e-04,        +4.867657454700e-01,        +4.782990787691e-01
 1.03000000e+01,        +2.738493908496e-13,        -6.591989414921e-13,        +1.460430242359e-04,        +4.870412909614e-01,        +4.785651261491e-01
 1.04000000e+01,        +2.660668424611e-13,        -6.589673194598e-13,        +1.478715180347e-04,        +4.873244069245e-01,        +4.788385266962e-01
 1.05000000e+01,        +2.583280763992e-13,        -6.586464620900e-13,        +1.496885395023e-04,        +4.876146530379e-01,        +4.791188600203e-01
 1.06000000e+01,        +2.506335898439e-13,        -6.582376716985e-13,        +1.514936551429e-04,        +4.879115756994e-01,        +4.794056943500e-01
 1.07000000e+01,        +2.429838535206e-13,        -6.577422228835e-13,        +1.532863930050e-04,        +4.882147085936e-01,        +4.796985871904e-01
 1.08000000e+01,        +2.353793138441e-13,        -6.571613621453e-13,        +1.550662293145e-04,        +4.885235733106e-01,        +4.799970860184e-01
 1.09000000e+01,        +2.278203951287e-13,        -6.564963076193e-13,        +1.568325727919e-04,        +4.888376800000e-01,        +4.803007290098e-01
 1.10000000e+01,        +2.203075018986e-13,        -6.557482489229e-13,        +1.585847465042e-04,        +4.891565280811e-01,        +4.806090457985e-01
 1.11000000e+01,        +2.128410212795e-13,        -6.549183471696e-13,        +1.603219670341e-04,        +4.894796069999e-01,        +4.809215582628e-01
 1.12000000e+01,        +2.054213254905e-13,        -6.540077351635e-13,        +1.620433209157e-04,        +4.898063970486e-01,        +4.812377813381e-01
 1.13000000e+01,        +1.980487744415e-13,        -6.530175178261e-13,        +1.637477383566e-04,        +4.901363702498e-01,        +4.815572238490e-01
 1.14000000e+01,        +1.907237183712e-13,        -6.519487728797e-13,        +1.654339644344e-04,        +4.904689913075e-01,        +4.818793893515e-01
 1.15000000e+01,        +1.834465005943e-13,        -6.508025518736e-13,        +1.671005281594e-04,        +4.908037186399e-01,        +4.822037769819e-01
 1.16000000e+01,        +1.762174602093e-13,        -6.495798815584e-13,        +1.687457101342e-04,        +4.911400054836e-01,        +4.825298822881e-01
 1.17000000e+01,        +1.690369348240e-13,        -6.482817657252e-13,        +1.703675098276e-04,        +4.914773010920e-01,        +4.828571980451e-01
 1.18000000e+01,        +1.619052631249e-13,        -6.469091875021e-13,        +1.719636140450e-04,        +4.918150520136e-01,        +4.831852150217e-01
 1.19000000e+01,        +1.548227872620e-13,        -6.454631122084e-13,        +1.735313685675e-04,        +4.921527034574e-01,        +4.835134226910e-01
 1.20000000e+01,        +1.477898548668e-13,        -6.439444907557e-13,        +1.750677556127e-04,        +4.924897007337e-01,        +4.838413098534e-01
 1.21000000e+01,        +1.408068205726e-13,        -6.423542636157e-13,        +1.765693802834e-04,        +4.928254907581e-01,        +4.841683651555e-01
 1.22000000e+01,        +1.338740468711e-13,        -6.406933653293e-13,        +1.780324697324e-04,        +4.931595236023e-01,        +4.844940774863e-01
 1.23000000e+01,        +1.269919040664e-13,        -6.389627294357e-13,        +1.794528891272e-04,        +4.934912540525e-01,        +4.848179362273e-01
 1.24000000e+01,        +1.201607691651e-13,        -6.371632936925e-13,        +1.808261786062e-04,        +4.938201431428e-01,        +4.851394313542e-01
 1.25000000e+01,        +1.133810235147e-13,        -6.352960053506e-13,        +1.821476151022e-04,        +4.941456596076e-01,        +4.854580533865e-01
 1.26000000e+01,        +1.066530490362e-13,        -6.333618261631e-13,        +1.834123020423e-04,        +4.944672811969e-01,        +4.857732932056e-01
 1.27000000e+01,        +9.997722303228e-14,        -6.313617367563e-13,        +1.846152884488e-04,        +4.947844957903e-01,        +4.860846417753e-01
 1.28000000e+01,        +9.335391159146e-14,        -6.292967399244e-13,        +1.857517166130e-04,        +4.950968022440e-01,        +4.863915898200e-01
 1.29000000e+01,        +8.678346181235e-14,        -6.271678623818e-13,        +1.868169947848e-04,        +4.954037109213e-01,        +4.866936275387e-01
 1.30000000e+01,        +8.026621602052e-14,        -6.249761478428e-13,        +1.878067404439e-04,        +4.957047298238e-01,        +4.869902223456e-01
 1.31000000e+01,        +7.380241288603e-14,        -6.227226815045e-13,        +1.887179527771e-04,        +4.959994196356e-01,        +4.872809057208e-01
 1.32000000e+01,        +6.739231179545e-14,        -6.204085443463e-13,        +1.895477674449e-04,        +4.962873116425e-01,        +4.875651458003e-01
 1.33000000e+01,        +6.103609813884e-14,        -6.180348329335e-13,        +1.902945708796e-04,        +4.965679604242e-01,        +4.878424318289e-01
 1.34000000e+01,        +5.473389904089e-14,        -6.156026429738e-13,        +1.909579066113e-04,        +4.968409296686e-01,        +4.881122553177e-01
 1.35000000e+01,        +4.848578042592e-14,        -6.131130581191e-13,        +1.915385569851e-04,        +4.971057911307e-01,        +4.883741112652e-01
 1.36000000e+01,        +4.229174671267e-14,        -6.105671378697e-13,        +1.920385711238e-04,        +4.973621236678e-01,        +4.886275008476e-01
 1.37000000e+01,        +3.615174382287e-14,        -6.079659055294e-13,        +1.924612247320e-04,        +4.976095125292e-01,        +4.888719340059e-01
 1.38000000e+01,        +3.006566520417e-14,        -6.053103371181e-13,        +1.928109169617e-04,        +4.978475490197e-01,        +4.891069323943e-01
 1.39000000e+01,        +2.403336048314e-14,        -6.026013520995e-13,        +1.930930113996e-04,        +4.980758306239e-01,        +4.893320324362e-01
 1.40000000e+01,        +1.805464608681e-14,        -5.998398065751e-13,        +1.933136341763e-04,        +4.982939616386e-01,        +4.895467883247e-01
 1.41000000e+01,        +1.212931700730e-14,        -5.970264893453e-13,        +1.934794457180e-04,        +4.985015543017e-01,        +4.897507748099e-01
 1.42000000e+01,        +6.257158827011e-15,        -5.941621209252e-13,        +1.935974040008e-04,        +4.986982303576e-01,        +4.899435896468e-01
 1.43000000e+01,        +4.379591915199e-16,        -5.912473553581e-13,        +1.936745362939e-04,        +4.988836229660e-01,        +4.901248556163e-01
 1.44000000e+01,        -5.328481959468e-15,        -5.882827843950e-13,        +1.937177336467e-04,        +4.990573788320e-01,        +4.902942220731e-01
 1.45000000e+01,        -1.104234387524e-14,        -5.852689435014e-13,        +1.937335784759e-04,        +4.992191604358e-01,        +4.904513660262e-01
 1.46000000e+01,        -1.670377846133e-14,        -5.822063190509e-13,        +1.937282111787e-04,        +4.993686482415e-01,        +4.905959927827e-01
