        f (GHz),          Re{Φ_elec[1]} (C),          Im{Φ_elec[1]} (C),               Φ_pow[2] (W),               Φ_pow[3] (W),               Φ_pow[4] (W)
 2.00000000e+00,        +8.751419805042e-13,        -2.165963894283e-13,        +1.582451666692e-05,        +9.858322686250e-01,        +9.774637737526e-01
 2.10000000e+00,        +8.712026540784e-13,        -2.267193284014e-13,        +1.742224167444e-05,        +9.853088623478e-01,        +9.769409918358e-01
 2.20000000e+00,        +8.670957283388e-13,        -2.367434837670e-13,        +1.909297529910e-05,        +9.847668988936e-01,        +9.763996945653e-01
 2.30000000e+00,        +8.628244619367e-13,        -2.466652103313e-13,        +2.083603325465e-05,        +9.842073021478e-01,        +9.758408022955e-01
 2.40000000e+00,        +8.583922111331e-13,        -2.564809954352e-13,        +2.265070385470e-05,        +9.836310230004e-01,        +9.752652620783e-01
 2.50000000e+00,        +8.538024234717e-13,        -2.661874617310e-13,        +2.453624844760e-05,        +9.830390374703e-01,        +9.746740458283e-01
 2.60000000e+00,        +8.490586315390e-13,        -2.757813699439e-13,        +2.649190207109e-05,        +9.824323447271e-01,        +9.740681483270e-01
 2.70000000e+00,        +8.441644465428e-13,        -2.852596210225e-13,        +2.851687391635e-05,        +9.818119651734e-01,        +9.734485853160e-01
 2.80000000e+00,        +8.391235516214e-13,        -2.946192578010e-13,        +3.061034791857e-05,        +9.811789384987e-01,        +9.728163915748e-01
 2.90000000e+00,        +8.339396955527e-13,        -3.038574667020e-13,        +3.277148335413e-05,        +9.805343216889e-01,        +9.721726188970e-01
 3.00000000e+00,        +8.286166863075e-13,        -3.129715790379e-13,        +3.499941541290e-05,        +9.798791870274e-01,        +9.715183341409e-01
 3.10000000e+00,        +8.231583844037e-13,        -3.219590715734e-13,        +3.729325573741e-05,        +9.792146201362e-01,        +9.708546172667e-01
 3.20000000e+00,        +8.175686967444e-13,        -3.308175674692e-13,        +3.965209307779e-05,        +9.785417179787e-01,        +9.701825593462e-01
 3.30000000e+00,        +8.118515699602e-13,        -3.395448360878e-13,        +4.207499384891e-05,        +9.778615868934e-01,        +9.695032606154e-01
 3.40000000e+00,        +8.060109844064e-13,        -3.481387932960e-13,        +4.456100273226e-05,        +9.771753406400e-01,        +9.688178285151e-01
 3.50000000e+00,        +8.000509477870e-13,        -3.565975008893e-13,        +4.710914324653e-05,        +9.764840984283e-01,        +9.681273757834e-01
 3.60000000e+00,        +7.939754891479e-13,        -3.649191660608e-13,        +4.971841848450e-05,        +9.757889830219e-01,        +9.674330184821e-01
 3.70000000e+00,        +7.877886528711e-13,        -3.731021404129e-13,        +5.238781154507e-05,        +9.750911188057e-01,        +9.667358741752e-01
 3.80000000e+00,        +7.814944928421e-13,        -3.811449188025e-13,        +5.511628627413e-05,        +9.743916299343e-01,        +9.660370600283e-01
 3.90000000e+00,        +7.750970667383e-13,        -3.890461378583e-13,        +5.790278778836e-05,        +9.736916384882e-01,        +9.653376910102e-01
 4.00000000e+00,        +7.686004304865e-13,        -3.968045743542e-13,        +6.074624319330e-05,        +9.729922626421e-01,        +9.646388780473e-01
 4.10000000e+00,        +7.620086328999e-13,        -4.044191433110e-13,        +6.364556211356e-05,        +9.722946149119e-01,        +9.639417263204e-01
 4.20000000e+00,        +7.553257104290e-13,        -4.118888957787e-13,        +6.659963733674e-05,        +9.715998004191e-01,        +9.632473335238e-01
 4.30000000e+00,        +7.485556821666e-13,        -4.192130166521e-13,        +6.960734547650e-05,        +9.709089151824e-01,        +9.625567881747e-01
 4.40000000e+00,        +7.417025449598e-13,        -4.263908220073e-13,        +7.266754757426e-05,        +9.702230444805e-01,        +9.618711679986e-01
 4.50000000e+00,        +7.347702688065e-13,        -4.334217565670e-13,        +7.577908971964e-05,        +9.695432612312e-01,        +9.611915383320e-01
 4.60000000e+00,        +7.277627923718e-13,        -4.403053907113e-13,        +7.894080371510e-05,        +9.688706244619e-01,        +9.605189505940e-01
 4.70000000e+00,        +7.206840187436e-13,        -4.470414175642e-13,        +8.215150773150e-05,        +9.682061777669e-01,        +9.598544407767e-01
 4.80000000e+00,        +7.135378114059e-13,        -4.536296498644e-13,        +8.541000691250e-05,        +9.675509478686e-01,        +9.591990280216e-01
 4.90000000e+00,        +7.063279903698e-13,        -4.600700166411e-13,        +8.871509410405e-05,        +9.669059431803e-01,        +9.585537132029e-01
 5.00000000e+00,        +6.990583285875e-13,        -4.663625599387e-13,        +9.206555048331e-05,        +9.662721524761e-01,        +9.579194776137e-01
 5.10000000e+00,        +6.917325485128e-13,        -4.725074312918e-13,        +9.546014625714e-05,        +9.656505435561e-01,        +9.572972816554e-01
 5.20000000e+00,        +6.843543189077e-13,        -4.785048882159e-13,        +9.889764138469e-05,        +9.650420619983e-01,        +9.566880636078e-01
 5.30000000e+00,        +6.769272518536e-13,        -4.843552905979e-13,        +1.023767862324e-04,        +9.644476299415e-01,        +9.560927384409e-01
 5.40000000e+00,        +6.694548999598e-13,        -4.900590970216e-13,        +1.058963223987e-04,        +9.638681449289e-01,        +9.555121966698e-01
 5.50000000e+00,        +6.619407538019e-13,        -4.956168610360e-13,        +1.094549833995e-04,        +9.633044788130e-01,        +9.549473032870e-01
 5.60000000e+00,        +6.543882395437e-13,        -5.010292274299e-13,        +1.130514954840e-04,        +9.627574766892e-01,        +9.543988967163e-01
 5.70000000e+00,        +6.468007167645e-13,        -5.062969284528e-13,        +1.166845784272e-04,        +9.622279558776e-01,        +9.538677878260e-01
 5.80000000e+00,        +6.391814765129e-13,        -5.114207799784e-13,        +1.203529463776e-04,        +9.617167050090e-01,        +9.533547590165e-01
 5.90000000e+00,        +6.315337395042e-13,        -5.164016777589e-13,        +1.240553087160e-04,        +9.612244830651e-01,        +9.528605633072e-01
 6.00000000e+00,        +6.238606545539e-13,        -5.212405936132e-13,        +1.277903709469e-04,        +9.607520185492e-01,        +9.523859235188e-01
 6.10000000e+00,        +6.161652971678e-13,        -5.259385716354e-13,        +1.315568357293e-04,        +9.603000086707e-01,        +9.519315314727e-01
 6.20000000e+00,        +6.084506683344e-13,        -5.304967244529e-13,        +1.353534037081e-04,        +9.598691185728e-01,        +9.514980472653e-01
 6.30000000e+00,        +6.007196934735e-13,        -5.349162294645e-13,        +1.391787747338e-04,        +9.594599806235e-01,        +9.510860985507e-01
 6.40000000e+00,        +5.929752215541e-13,        -5.391983251949e-13,        +1.430316487928e-04,        +9.590731937148e-01,        +9.506962798970e-01
 6.50000000e+00,        +5.852200243992e-13,        -5.433443075867e-13,        +1.469107272854e-04,        +9.587093226655e-01,        +9.503291521809e-01
 6.60000000e+00,        +5.774567961101e-13,        -5.473555264372e-13,        +1.508147141767e-04,        +9.583688975981e-01,        +9.499852420073e-01
 6.70000000e+00,        +5.696881526709e-13,        -5.512333818507e-13,        +1.547423172475e-04,        +9.580524134070e-01,        +9.496650411991e-01
 6.80000000e+00,        +5.619166317021e-13,        -5.549793207126e-13,        +1.586922495054e-04,        +9.577603292612e-01,        +9.493690063110e-01
 6.90000000e+00,        +5.541446923025e-13,        -5.585948333067e-13,        +1.626632306367e-04,        +9.574930680986e-01,        +9.490975581564e-01
 7.00000000e+00,        +5.463747151105e-13,        -5.620814499309e-13,        +1.666539884082e-04,        +9.572510162505e-01,        +9.488510814508e-01
 7.10000000e+00,        +5.386090023932e-13,        -5.654407376397e-13,        +1.706632603931e-04,        +9.570345230031e-01,        +9.486299243974e-01
 7.20000000e+00,        +5.308497783189e-13,        -5.686742970338e-13,        +1.746897956292e-04,        +9.568439002675e-01,        +9.484343983761e-01
 7.30000000e+00,        +5.230991893343e-13,        -5.717837591159e-13,        +1.787323564333e-04,        +9.566794222614e-01,        +9.482647776455e-01
 7.40000000e+00,        +5.153593046120e-13,        -5.747707822803e-13,        +1.827897203106e-04,        +9.565413252119e-01,        +9.481212990746e-01
 7.50000000e+00,        +5.076321166544e-13,        -5.776370493209e-13,        +1.868606820096e-04,        +9.564298071344e-01,        +9.480041619319e-01
 7.60000000e+00,        +4.999195419336e-13,        -5.803842645854e-13,        +1.909440556732e-04,        +9.563450276013e-01,        +9.479135276809e-01
 7.70000000e+00,        +4.922234216609e-13,        -5.830141511788e-13,        +1.950386770988e-04,        +9.562871075705e-01,        +9.478495198290e-01
 7.80000000e+00,        +4.845455226160e-13,        -5.855284482706e-13,        +1.991434062043e-04,        +9.562561292470e-01,        +9.478122238041e-01
 7.90000000e+00,        +4.768875380699e-13,        -5.879289084843e-13,        +2.032571295415e-04,        +9.562521359708e-01,        +9.478016868654e-01
 8.00000000e+00,        +4.692510887503e-13,        -5.902172953898e-13,        +2.073787630364e-04,        +9.562751321357e-01,        +9.478179180389e-01
 8.10000000e+00,        +4.616377239065e-13,        -5.923953810760e-13,        +2.115072548094e-04,        +9.563250831658e-01,        +9.478608881097e-01
 8.20000000e+00,        +4.540489224044e-13,        -5.944649438221e-13,        +2.156415881437e-04,        +9.564019154881e-01,        +9.479305296174e-01
 8.30000000e+00,        +4.464860939037e-13,        -5.964277658408e-13,        +2.197807846880e-04,        +9.565055165799e-01,        +9.480267369109e-01
 8.40000000e+00,        +4.389505800513e-13,        -5.982856311471e-13,        +2.239239076714e-04,        +9.566357350182e-01,        +9.481493662212e-01
 8.50000000e+00,        +4.314436557429e-13,        -6.000403234864e-13,        +2.280700653295e-04,        +9.567923805789e-01,        +9.482982357710e-01
 8.60000000e+00,        +4.239665304238e-13,        -6.016936243654e-13,        +2.322184144332e-04,        +9.569752243800e-01,        +9.484731259312e-01
 8.70000000e+00,        +4.165203494173e-13,        -6.032473111652e-13,        +2.363681639332e-04,        +9.571839990433e-01,        +9.486737793969e-01
 8.80000000e+00,        +4.091061952870e-13,        -6.047031553535e-13,        +2.405185786578e-04,        +9.574183989174e-01,        +9.488999014159e-01
 8.90000000e+00,        +4.017250892225e-13,        -6.060629207686e-13,        +2.446689830869e-04,        +9.576780803097e-01,        +9.491511600354e-01
 9.00000000e+00,        +3.943779924595e-13,        -6.073283620007e-13,        +2.488187651216e-04,        +9.579626617972e-01,        +9.494271864127e-01
 9.10000000e+00,        +3.870658076964e-13,        -6.085012228602e-13,        +2.529673797404e-04,        +9.582717245402e-01,        +9.497275751409e-01
 9.20000000e+00,        +3.797893805490e-13,        -6.095832349100e-13,        +2.571143526807e-04,        +9.586048126730e-01,        +9.500518846343e-01
 9.30000000e+00,        +3.725495010109e-13,        -6.105761160993e-13,        +2.612592837399e-04,        +9.589614337237e-01,        +9.503996375493e-01
 9.40000000e+00,        +3.653469048926e-13,        -6.114815694705e-13,        +2.654018498808e-04,        +9.593410590857e-01,        +9.507703212486e-01
 9.50000000e+00,        +3.581822753241e-13,        -6.123012819403e-13,        +2.695418077735e-04,        +9.597431245488e-01,        +9.511633883211e-01
 9.60000000e+00,        +3.510562441899e-13,        -6.130369231612e-13,        +2.736789957908e-04,        +9.601670308715e-01,        +9.515782571370e-01
 9.70000000e+00,        +3.439693935930e-13,        -6.136901444577e-13,        +2.778133350909e-04,        +9.606121444180e-01,        +9.520143124622e-01
 9.80000000e+00,        +3.369222573277e-13,        -6.142625778336e-13,        +2.819448296108e-04,        +9.610777978679e-01,        +9.524709061328e-01
 9.90000000e+00,        +3.299153223029e-13,        -6.147558350431e-13,        +2.860735646862e-04,        +9.615632909729e-01,        +9.529473577680e-01
 1.00000000e+01,        +3.229490299652e-13,        -6.151715067356e-13,        +2.901997038319e-04,        +9.620678913936e-01,        +9.534429555532e-01
 1.01000000e+01,        +3.160237777143e-13,        -6.155111616603e-13,        +2.943234832929e-04,        +9.625908356126e-01,        +9.539569570816e-01
 1.02000000e+01,        +3.091399202695e-13,        -6.157763459190e-13,        +2.984452038999e-04,        +9.631313299256e-01,        +9.544885902537e-01
 1.03000000e+01,        +3.022977710378e-13,        -6.159685822909e-13,        +3.025652194421e-04,        +9.636885515339e-01,        +9.550370542591e-01
 1.04000000e+01,        +2.954976034122e-13,        -6.160893695726e-13,        +3.066839210586e-04,        +9.642616497039e-01,        +9.556015205987e-01
 1.05000000e+01,        +2.887396520815e-13,        -6.161401819886e-13,        +3.108017165534e-04,        +9.648497470648e-01,        +9.561811342083e-01
 1.06000000e+01,        +2.820241142519e-13,        -6.161224685902e-13,        +3.149190039914e-04,        +9.654519409843e-01,        +9.567750146287e-01
 1.07000000e+01,        +2.753511508812e-13,        -6.160376527042e-13,        +3.190361381423e-04,        +9.660673050874e-01,        +9.573822572658e-01
 1.08000000e+01,        +2.687208878361e-13,        -6.158871313455e-13,        +3.231533890020e-04,        +9.666948908956e-01,        +9.580019347161e-01
 1.09000000e+01,        +2.621334170429e-13,        -6.156722746328e-13,        +3.272708907254e-04,        +9.673337295994e-01,        +9.586330981639e-01
 1.10000000e+01,        +2.555887976112e-13,        -6.153944251365e-13,        +3.313885800200e-04,        +9.679828339911e-01,        +9.592747788484e-01
 1.11000000e+01,        +2.490870569532e-13,        -6.150548971714e-13,        +3.355061223355e-04,        +9.686412005424e-01,        +9.599259895856e-01
 1.12000000e+01,        +2.426281919376e-13,        -6.146549759781e-13,        +3.396228248668e-04,        +9.693078116604e-01,        +9.605857263476e-01
 1.13000000e+01,        +2.362121701198e-13,        -6.141959167571e-13,        +3.437375352402e-04,        +9.699816381082e-01,        +9.612529698615e-01
 1.14000000e+01,        +2.298389310931e-13,        -6.136789435454e-13,        +3.478485250646e-04,        +9.706616416083e-01,        +9.619266872245e-01
 1.15000000e+01,        +2.235083881045e-13,        -6.131052478693e-13,        +3.519533584409e-04,        +9.713467776341e-01,        +9.626058334858e-01
 1.16000000e+01,        +2.172204300334e-13,        -6.124759871716e-13,        +3.560487458945e-04,        +9.720359983925e-01,        +9.632893531544e-01
 1.17000000e+01,        +2.109749239488e-13,        -6.117922830101e-13,        +3.601303854351e-04,        +9.727282559946e-01,        +9.639761815652e-01
 1.18000000e+01,        +2.047717184923e-13,        -6.110552190538e-13,        +3.641927937922e-04,        +9.734225058315e-01,        +9.646652460169e-01
 1.19000000e+01,        +1.986106484821e-13,        -6.102658390153e-13,        +3.682291322311e-04,        +9.741177101615e-01,        +9.653554665652e-01
 1.20000000e+01,        +1.924915411896e-13,        -6.094251447726e-13,        +3.722310328946e-04,        +9.748128419404e-01,        +9.660457563249e-01
 1.21000000e+01,        +1.864142249394e-13,        -6.085340951758e-13,        +3.761884328928e-04,        +9.755068889405e-01,        +9.667350210797e-01
 1.22000000e+01,        +1.803785407717e-13,        -6.075936064535e-13,        +3.800894234061e-04,        +9.761988582296e-01,        +9.674221579541e-01
 1.23000000e+01,        +1.743843580812e-13,        -6.066045557629e-13,        +3.839201201371e-04,        +9.768877811356e-01,        +9.681060528431e-01
 1.24000000e+01,        +1.684316288921e-13,        -6.055677509095e-13,        +3.876644996125e-04,        +9.775726883607e-01,        +9.687855772598e-01
 1.25000000e+01,        +1.625202825172e-13,        -6.044841065183e-13,        +3.913045101224e-04,        +9.782527362525e-01,        +9.694595769265e-01
 1.26000000e+01,        +1.566504434526e-13,        -6.033544486821e-13,        +3.948197058023e-04,        +9.789270354136e-01,        +9.701268733387e-01
 1.27000000e+01,        +1.508223359228e-13,        -6.021797307948e-13,        +3.981872644495e-04,        +9.795947730148e-01,        +9.707862467402e-01
 1.28000000e+01,        +1.450363231205e-13,        -6.009610994736e-13,        +4.013817163793e-04,        +9.802551846770e-01,        +9.714364292940e-01
 1.29000000e+01,        +1.392928683429e-13,        -5.997000490033e-13,        +4.043745895858e-04,        +9.809075425015e-01,        +9.720761027074e-01
 1.30000000e+01,        +1.335923889329e-13,        -5.983986207393e-13,        +4.071340480179e-04,        +9.815511147862e-01,        +9.727039149023e-01
 1.31000000e+01,        +1.279349175556e-13,        -5.970595871665e-13,        +4.096250038485e-04,        +9.821850734128e-01,        +9.733185373489e-01
 1.32000000e+01,        +1.223195040677e-13,        -5.956864474814e-13,        +4.118108613199e-04,        +9.828083273035e-01,        +9.739187885936e-01
 1.33000000e+01,        +1.167434563174e-13,        -5.942829252855e-13,        +4.136586639912e-04,        +9.834193014852e-01,        +9.745038251551e-01
 1.34000000e+01,        +1.112019044910e-13,        -5.928517086117e-13,        +4.151485328017e-04,        +9.840157863762e-01,        +9.750733190524e-01
 1.35000000e+01,        +1.056885072555e-13,        -5.913927527895e-13,        +4.162841012793e-04,        +9.845950856321e-01,        +9.756274338468e-01
 1.36000000e+01,        +1.001976138562e-13,        -5.899024022165e-13,        +4.170954368010e-04,        +9.851545778580e-01,        +9.761664498307e-01
 1.37000000e+01,        +9.472667548069e-14,        -5.883745535805e-13,        +4.176283726518e-04,        +9.856923974650e-01,        +9.766902002748e-01
 1.38000000e+01,        +8.927696846683e-14,        -5.868033025708e-13,        +4.179265937533e-04,        +9.862076999780e-01,        +9.771977502296e-01
 1.39000000e+01,        +8.385222297515e-14,        -5.851850420621e-13,        +4.180200053222e-04,        +9.867003528318e-01,        +9.776875384111e-01
 1.40000000e+01,        +7.845659987248e-14,        -5.835188352124e-13,        +4.179248073229e-04,        +9.871704105246e-01,        +9.781577686927e-01
 1.41000000e+01,        +7.309339231767e-14,        -5.818055847648e-13,        +4.176500039820e-04,        +9.876177562555e-01,        +9.786067357235e-01
 1.42000000e+01,        +6.776468465154e-14,        -5.800470117349e-13,        +4.172036198529e-04,        +9.880419964636e-01,        +9.790329682828e-01
 1.43000000e+01,        +6.247154979407e-14,        -5.782449661612e-13,        +4.165959674832e-04,        +9.884425076569e-01,        +9.794352398111e-01
 1.44000000e+01,        +5.721438324252e-14,        -5.764011048523e-13,        +4.158403895289e-04,        +9.888185277511e-01,        +9.798125253760e-01
 1.45000000e+01,        +5.199318523163e-14,        -5.745167996939e-13,        +4.149526705287e-04,        +9.891692375633e-01,        +9.801639526737e-01
 1.46000000e+01,        +4.680774954435e-14,        -5.725931520660e-13,        +4.139500061707e-04,        +9.894938180763e-01,        +9.804887641205e-01
