         f (GHz),              E_elec (J),               E_mag (J),               E_cap (J),               E_ind (J),           E_elec[1] (J),               p_elec[1],            E_mag[1] (J),                p_mag[1]
 2.000000000e+00,        +2.212538257e-02,        +1.176693831e-02,        +0.000000000e+00,        +0.000000000e+00,        +2.005505318e-02,        +9.064274079e-01,        +5.850530976e-03,        +4.972007861e-01
 2.100000000e+00,        +2.201809296e-02,        +1.180597975e-02,        +0.000000000e+00,        +0.000000000e+00,        +1.995804498e-02,        +9.064384012e-01,        +5.869659199e-03,        +4.971767970e-01
 2.200000000e+00,        +2.190715663e-02,        +1.184659694e-02,        +0.000000000e+00,        +0.000000000e+00,        +1.985773722e-02,        +9.064497761e-01,        +5.889561190e-03,        +4.971521543e-01
 2.300000000e+00,        +2.179276290e-02,        +1.188874903e-02,        +0.000000000e+00,        +0.000000000e+00,        +1.975430096e-02,        +9.064615192e-01,        +5.910217146e-03,        +4.971269165e-01
 2.400000000e+00,        +2.167510362e-02,        +1.193239451e-02,        +0.000000000e+00,        +0.000000000e+00,        +1.964790958e-02,        +9.064736172e-01,        +5.931606936e-03,        +4.971011418e-01
 2.500000000e+00,        +2.155437273e-02,        +1.197749130e-02,        +0.000000000e+00,        +0.000000000e+00,        +1.953873834e-02,        +9.064860564e-01,        +5.953710152e-03,        +4.970748884e-01
 2.600000000e+00,        +2.143076575e-02,        +1.202399688e-02,        +0.000000000e+00,        +0.000000000e+00,        +1.942696392e-02,        +9.064988228e-01,        +5.976506170e-03,        +4.970482136e-01
 2.700000000e+00,        +2.130447927e-02,        +1.207186838e-02,        +0.000000000e+00,        +0.000000000e+00,        +1.931276403e-02,        +9.065119021e-01,        +5.999974199e-03,        +4.970211745e-01
 2.800000000e+00,        +2.117571054e-02,        +1.212106268e-02,        +0.000000000e+00,        +0.000000000e+00,        +1.919631691e-02,        +9.065252794e-01,        +6.024093331e-03,        +4.969938270e-01
 2.900000000e+00,        +2.104465695e-02,        +1.217153656e-02,        +0.000000000e+00,        +0.000000000e+00,        +1.907780100e-02,        +9.065389398e-01,        +6.048842592e-03,        +4.969662262e-01
 3.000000000e+00,        +2.091151566e-02,        +1.222324673e-02,        +0.000000000e+00,        +0.000000000e+00,        +1.895739449e-02,        +9.065528674e-01,        +6.074200989e-03,        +4.969384260e-01
 3.100000000e+00,        +2.077648315e-02,        +1.227614995e-02,        +0.000000000e+00,        +0.000000000e+00,        +1.883527496e-02,        +9.065670461e-01,        +6.100147553e-03,        +4.969104792e-01
 3.200000000e+00,        +2.063975481e-02,        +1.233020313e-02,        +0.000000000e+00,        +0.000000000e+00,        +1.871161904e-02,        +9.065814594e-01,        +6.126661382e-03,        +4.968824371e-01
 3.300000000e+00,        +2.050152459e-02,        +1.238536341e-02,        +0.000000000e+00,        +0.000000000e+00,        +1.858660203e-02,        +9.065960899e-01,        +6.153721680e-03,        +4.968543495e-01
 3.400000000e+00,        +2.036198463e-02,        +1.244158820e-02,        +0.000000000e+00,        +0.000000000e+00,        +1.846039762e-02,        +9.066109199e-01,        +6.181307794e-03,        +4.968262647e-01
 3.500000000e+00,        +2.022132494e-02,        +1.249883529e-02,        +0.000000000e+00,        +0.000000000e+00,        +1.833317754e-02,        +9.066259309e-01,        +6.209399245e-03,        +4.967982295e-01
 3.600000000e+00,        +2.007973306e-02,        +1.255706290e-02,        +0.000000000e+00,        +0.000000000e+00,        +1.820511135e-02,        +9.066411040e-01,        +6.237975765e-03,        +4.967702889e-01
 3.700000000e+00,        +1.993739381e-02,        +1.261622972e-02,        +0.000000000e+00,        +0.000000000e+00,        +1.807636608e-02,        +9.066564194e-01,        +6.267017319e-03,        +4.967424863e-01
 3.800000000e+00,        +1.979448898e-02,        +1.267629499e-02,        +0.000000000e+00,        +0.000000000e+00,        +1.794710608e-02,        +9.066718570e-01,        +6.296504135e-03,        +4.967148633e-01
 3.900000000e+00,        +1.965119714e-02,        +1.273721854e-02,        +0.000000000e+00,        +0.000000000e+00,        +1.781749276e-02,        +9.066873958e-01,        +6.326416722e-03,        +4.966874597e-01
 4.000000000e+00,        +1.950769337e-02,        +1.279896082e-02,        +0.000000000e+00,        +0.000000000e+00,        +1.768768437e-02,        +9.067030142e-01,        +6.356735893e-03,        +4.966603135e-01
 4.100000000e+00,        +1.936414907e-02,        +1.286148293e-02,        +0.000000000e+00,        +0.000000000e+00,        +1.755783588e-02,        +9.067186899e-01,        +6.387442782e-03,        +4.966334612e-01
 4.200000000e+00,        +1.922073182e-02,        +1.292474666e-02,        +0.000000000e+00,        +0.000000000e+00,        +1.742809874e-02,        +9.067344002e-01,        +6.418518852e-03,        +4.966069372e-01
 4.300000000e+00,        +1.907760520e-02,        +1.298871452e-02,        +0.000000000e+00,        +0.000000000e+00,        +1.729862083e-02,        +9.067501214e-01,        +6.449945915e-03,        +4.965807743e-01
 4.400000000e+00,        +1.893492862e-02,        +1.305334976e-02,        +0.000000000e+00,        +0.000000000e+00,        +1.716954626e-02,        +9.067658294e-01,        +6.481706134e-03,        +4.965550034e-01
 4.500000000e+00,        +1.879285728e-02,        +1.311861634e-02,        +0.000000000e+00,        +0.000000000e+00,        +1.704101531e-02,        +9.067814994e-01,        +6.513782032e-03,        +4.965296540e-01
 4.600000000e+00,        +1.865154202e-02,        +1.318447899e-02,        +0.000000000e+00,        +0.000000000e+00,        +1.691316433e-02,        +9.067971060e-01,        +6.546156493e-03,        +4.965047537e-01
 4.700000000e+00,        +1.851112925e-02,        +1.325090319e-02,        +0.000000000e+00,        +0.000000000e+00,        +1.678612567e-02,        +9.068126231e-01,        +6.578812765e-03,        +4.964803284e-01
 4.800000000e+00,        +1.837176090e-02,        +1.331785515e-02,        +0.000000000e+00,        +0.000000000e+00,        +1.666002764e-02,        +9.068280242e-01,        +6.611734461e-03,        +4.964564026e-01
 4.900000000e+00,        +1.823357438e-02,        +1.338530186e-02,        +0.000000000e+00,        +0.000000000e+00,        +1.653499444e-02,        +9.068432822e-01,        +6.644905549e-03,        +4.964329992e-01
 5.000000000e+00,        +1.809670254e-02,        +1.345321101e-02,        +0.000000000e+00,        +0.000000000e+00,        +1.641114616e-02,        +9.068583694e-01,        +6.678310353e-03,        +4.964101395e-01
 5.100000000e+00,        +1.796127367e-02,        +1.352155101e-02,        +0.000000000e+00,        +0.000000000e+00,        +1.628859876e-02,        +9.068732578e-01,        +6.711933544e-03,        +4.963878434e-01
 5.200000000e+00,        +1.782741147e-02,        +1.359029097e-02,        +0.000000000e+00,        +0.000000000e+00,        +1.616746408e-02,        +9.068879186e-01,        +6.745760129e-03,        +4.963661295e-01
 5.300000000e+00,        +1.769523510e-02,        +1.365940069e-02,        +0.000000000e+00,        +0.000000000e+00,        +1.604784982e-02,        +9.069023231e-01,        +6.779775440e-03,        +4.963450149e-01
 5.400000000e+00,        +1.756485918e-02,        +1.372885061e-02,        +0.000000000e+00,        +0.000000000e+00,        +1.592985959e-02,        +9.069164418e-01,        +6.813965125e-03,        +4.963245155e-01
 5.500000000e+00,        +1.743639382e-02,        +1.379861177e-02,        +0.000000000e+00,        +0.000000000e+00,        +1.581359292e-02,        +9.069302452e-01,        +6.848315131e-03,        +4.963046460e-01
 5.600000000e+00,        +1.730994466e-02,        +1.386865584e-02,        +0.000000000e+00,        +0.000000000e+00,        +1.569914532e-02,        +9.069437035e-01,        +6.882811687e-03,        +4.962854199e-01
 5.700000000e+00,        +1.718561295e-02,        +1.393895502e-02,        +0.000000000e+00,        +0.000000000e+00,        +1.558660830e-02,        +9.069567865e-01,        +6.917441292e-03,        +4.962668496e-01
 5.800000000e+00,        +1.706349556e-02,        +1.400948203e-02,        +0.000000000e+00,        +0.000000000e+00,        +1.547606943e-02,        +9.069694641e-01,        +6.952190695e-03,        +4.962489464e-01
 5.900000000e+00,        +1.694368508e-02,        +1.408021008e-02,        +0.000000000e+00,        +0.000000000e+00,        +1.536761240e-02,        +9.069817061e-01,        +6.987046875e-03,        +4.962317206e-01
 6.000000000e+00,        +1.682626985e-02,        +1.415111283e-02,        +0.000000000e+00,        +0.000000000e+00,        +1.526131709e-02,        +9.069934823e-01,        +7.021997020e-03,        +4.962151815e-01
 6.100000000e+00,        +1.671133408e-02,        +1.422216431e-02,        +0.000000000e+00,        +0.000000000e+00,        +1.515725960e-02,        +9.070047626e-01,        +7.057028513e-03,        +4.961993377e-01
 6.200000000e+00,        +1.659895789e-02,        +1.429333894e-02,        +0.000000000e+00,        +0.000000000e+00,        +1.505551237e-02,        +9.070155170e-01,        +7.092128902e-03,        +4.961841968e-01
 6.300000000e+00,        +1.648921737e-02,        +1.436461143e-02,        +0.000000000e+00,        +0.000000000e+00,        +1.495614418e-02,        +9.070257158e-01,        +7.127285883e-03,        +4.961697656e-01
 6.400000000e+00,        +1.638218471e-02,        +1.443595675e-02,        +0.000000000e+00,        +0.000000000e+00,        +1.485922031e-02,        +9.070353297e-01,        +7.162487279e-03,        +4.961560501e-01
 6.500000000e+00,        +1.627792825e-02,        +1.450735011e-02,        +0.000000000e+00,        +0.000000000e+00,        +1.476480252e-02,        +9.070443297e-01,        +7.197721011e-03,        +4.961430557e-01
 6.600000000e+00,        +1.617651256e-02,        +1.457876686e-02,        +0.000000000e+00,        +0.000000000e+00,        +1.467294919e-02,        +9.070526875e-01,        +7.232975080e-03,        +4.961307872e-01
 6.700000000e+00,        +1.607799852e-02,        +1.465018251e-02,        +0.000000000e+00,        +0.000000000e+00,        +1.458371537e-02,        +9.070603751e-01,        +7.268237540e-03,        +4.961192486e-01
 6.800000000e+00,        +1.598244339e-02,        +1.472157262e-02,        +0.000000000e+00,        +0.000000000e+00,        +1.449715282e-02,        +9.070673657e-01,        +7.303496477e-03,        +4.961084435e-01
 6.900000000e+00,        +1.588990092e-02,        +1.479291276e-02,        +0.000000000e+00,        +0.000000000e+00,        +1.441331015e-02,        +9.070736327e-01,        +7.338739980e-03,        +4.960983748e-01
 7.000000000e+00,        +1.580042137e-02,        +1.486417851e-02,        +0.000000000e+00,        +0.000000000e+00,        +1.433223280e-02,        +9.070791509e-01,        +7.373956124e-03,        +4.960890451e-01
 7.100000000e+00,        +1.571405165e-02,        +1.493534536e-02,        +0.000000000e+00,        +0.000000000e+00,        +1.425396319e-02,        +9.070838959e-01,        +7.409132940e-03,        +4.960804563e-01
 7.200000000e+00,        +1.563083532e-02,        +1.500638867e-02,        +0.000000000e+00,        +0.000000000e+00,        +1.417854072e-02,        +9.070878444e-01,        +7.444258394e-03,        +4.960726100e-01
 7.300000000e+00,        +1.555081271e-02,        +1.507728365e-02,        +0.000000000e+00,        +0.000000000e+00,        +1.410600185e-02,        +9.070909744e-01,        +7.479320362e-03,        +4.960655074e-01
 7.400000000e+00,        +1.547402093e-02,        +1.514800527e-02,        +0.000000000e+00,        +0.000000000e+00,        +1.403638017e-02,        +9.070932650e-01,        +7.514306607e-03,        +4.960591494e-01
 7.500000000e+00,        +1.540049398e-02,        +1.521852825e-02,        +0.000000000e+00,        +0.000000000e+00,        +1.396970642e-02,        +9.070946969e-01,        +7.549204755e-03,        +4.960535363e-01
 7.600000000e+00,        +1.533026277e-02,        +1.528882700e-02,        +0.000000000e+00,        +0.000000000e+00,        +1.390600857e-02,        +9.070952522e-01,        +7.584002274e-03,        +4.960486684e-01
 7.700000000e+00,        +1.526335516e-02,        +1.535887557e-02,        +0.000000000e+00,        +0.000000000e+00,        +1.384531185e-02,        +9.070949147e-01,        +7.618686452e-03,        +4.960445454e-01
 7.800000000e+00,        +1.519979604e-02,        +1.542864762e-02,        +0.000000000e+00,        +0.000000000e+00,        +1.378763877e-02,        +9.070936697e-01,        +7.653244371e-03,        +4.960411669e-01
 7.900000000e+00,        +1.513960734e-02,        +1.549811636e-02,        +0.000000000e+00,        +0.000000000e+00,        +1.373300920e-02,        +9.070915044e-01,        +7.687662892e-03,        +4.960385323e-01
 8.000000000e+00,        +1.508280804e-02,        +1.556725451e-02,        +0.000000000e+00,        +0.000000000e+00,        +1.368144033e-02,        +9.070884078e-01,        +7.721928630e-03,        +4.960366407e-01
 8.100000000e+00,        +1.502941427e-02,        +1.563603428e-02,        +0.000000000e+00,        +0.000000000e+00,        +1.363294678e-02,        +9.070843708e-01,        +7.756027937e-03,        +4.960354908e-01
 8.200000000e+00,        +1.497943923e-02,        +1.570442732e-02,        +0.000000000e+00,        +0.000000000e+00,        +1.358754054e-02,        +9.070793863e-01,        +7.789946882e-03,        +4.960350813e-01
 8.300000000e+00,        +1.493289331e-02,        +1.577240468e-02,        +0.000000000e+00,        +0.000000000e+00,        +1.354523104e-02,        +9.070734493e-01,        +7.823671236e-03,        +4.960354107e-01
 8.400000000e+00,        +1.488978402e-02,        +1.583993680e-02,        +0.000000000e+00,        +0.000000000e+00,        +1.350602513e-02,        +9.070665568e-01,        +7.857186452e-03,        +4.960364773e-01
 8.500000000e+00,        +1.485011605e-02,        +1.590699344e-02,        +0.000000000e+00,        +0.000000000e+00,        +1.346992708e-02,        +9.070587081e-01,        +7.890477652e-03,        +4.960382792e-01
 8.600000000e+00,        +1.481389120e-02,        +1.597354368e-02,        +0.000000000e+00,        +0.000000000e+00,        +1.343693860e-02,        +9.070499047e-01,        +7.923529612e-03,        +4.960408142e-01
 8.700000000e+00,        +1.478110848e-02,        +1.603955589e-02,        +0.000000000e+00,        +0.000000000e+00,        +1.340705885e-02,        +9.070401500e-01,        +7.956326750e-03,        +4.960440803e-01
 8.800000000e+00,        +1.475176397e-02,        +1.610499771e-02,        +0.000000000e+00,        +0.000000000e+00,        +1.338028437e-02,        +9.070294501e-01,        +7.988853114e-03,        +4.960480750e-01
 8.900000000e+00,        +1.472585093e-02,        +1.616983603e-02,        +0.000000000e+00,        +0.000000000e+00,        +1.335660911e-02,        +9.070178131e-01,        +8.021092373e-03,        +4.960527960e-01
 9.000000000e+00,        +1.470335968e-02,        +1.623403696e-02,        +0.000000000e+00,        +0.000000000e+00,        +1.333602441e-02,        +9.070052494e-01,        +8.053027809e-03,        +4.960582404e-01
 9.100000000e+00,        +1.468427762e-02,        +1.629756584e-02,        +0.000000000e+00,        +0.000000000e+00,        +1.331851897e-02,        +9.069917717e-01,        +8.084642311e-03,        +4.960644057e-01
 9.200000000e+00,        +1.466858920e-02,        +1.636038721e-02,        +0.000000000e+00,        +0.000000000e+00,        +1.330407882e-02,        +9.069773949e-01,        +8.115918369e-03,        +4.960712890e-01
 9.300000000e+00,        +1.465627587e-02,        +1.642246483e-02,        +0.000000000e+00,        +0.000000000e+00,        +1.329268727e-02,        +9.069621361e-01,        +8.146838075e-03,        +4.960788871e-01
 9.400000000e+00,        +1.464731605e-02,        +1.648376166e-02,        +0.000000000e+00,        +0.000000000e+00,        +1.328432492e-02,        +9.069460147e-01,        +8.177383119e-03,        +4.960871971e-01
 9.500000000e+00,        +1.464168510e-02,        +1.654423988e-02,        +0.000000000e+00,        +0.000000000e+00,        +1.327896959e-02,        +9.069290520e-01,        +8.207534795e-03,        +4.960962157e-01
 9.600000000e+00,        +1.463935524e-02,        +1.660386089e-02,        +0.000000000e+00,        +0.000000000e+00,        +1.327659627e-02,        +9.069112716e-01,        +8.237274004e-03,        +4.961059394e-01
 9.700000000e+00,        +1.464029554e-02,        +1.666258532e-02,        +0.000000000e+00,        +0.000000000e+00,        +1.327717713e-02,        +9.068926989e-01,        +8.266581259e-03,        +4.961163648e-01
 9.800000000e+00,        +1.464447186e-02,        +1.672037308e-02,        +0.000000000e+00,        +0.000000000e+00,        +1.328068142e-02,        +9.068733614e-01,        +8.295436697e-03,        +4.961274882e-01
 9.900000000e+00,        +1.465184680e-02,        +1.677718333e-02,        +0.000000000e+00,        +0.000000000e+00,        +1.328707545e-02,        +9.068532884e-01,        +8.323820090e-03,        +4.961393058e-01
 1.000000000e+01,        +1.466237964e-02,        +1.683297457e-02,        +0.000000000e+00,        +0.000000000e+00,        +1.329632254e-02,        +9.068325109e-01,        +8.351710863e-03,        +4.961518137e-01
 1.010000000e+01,        +1.467602629e-02,        +1.688770464e-02,        +0.000000000e+00,        +0.000000000e+00,        +1.330838298e-02,        +9.068110615e-01,        +8.379088107e-03,        +4.961650079e-01
 1.020000000e+01,        +1.469273926e-02,        +1.694133079e-02,        +0.000000000e+00,        +0.000000000e+00,        +1.332321397e-02,        +9.067889745e-01,        +8.405930604e-03,        +4.961788841e-01
 1.030000000e+01,        +1.471246759e-02,        +1.699380968e-02,        +0.000000000e+00,        +0.000000000e+00,        +1.334076959e-02,        +9.067662854e-01,        +8.432216849e-03,        +4.961934378e-01
 1.040000000e+01,        +1.473515682e-02,        +1.704509752e-02,        +0.000000000e+00,        +0.000000000e+00,        +1.336100076e-02,        +9.067430313e-01,        +8.457925078e-03,        +4.962086646e-01
 1.050000000e+01,        +1.476074890e-02,        +1.709515003e-02,        +0.000000000e+00,        +0.000000000e+00,        +1.338385518e-02,        +9.067192503e-01,        +8.483033298e-03,        +4.962245597e-01
 1.060000000e+01,        +1.478918223e-02,        +1.714392260e-02,        +0.000000000e+00,        +0.000000000e+00,        +1.340927731e-02,        +9.066949815e-01,        +8.507519322e-03,        +4.962411182e-01
 1.070000000e+01,        +1.482039155e-02,        +1.719137031e-02,        +0.000000000e+00,        +0.000000000e+00,        +1.343720833e-02,        +9.066702650e-01,        +8.531360805e-03,        +4.962583349e-01
 1.080000000e+01,        +1.485430794e-02,        +1.723744803e-02,        +0.000000000e+00,        +0.000000000e+00,        +1.346758612e-02,        +9.066451417e-01,        +8.554535285e-03,        +4.962762044e-01
 1.090000000e+01,        +1.489085878e-02,        +1.728211052e-02,        +0.000000000e+00,        +0.000000000e+00,        +1.350034522e-02,        +9.066196532e-01,        +8.577020224e-03,        +4.962947213e-01
 1.100000000e+01,        +1.492996776e-02,        +1.732531249e-02,        +0.000000000e+00,        +0.000000000e+00,        +1.353541682e-02,        +9.065938415e-01,        +8.598793060e-03,        +4.963138797e-01
