         f (GHz),              E_elec (J),               E_mag (J),               E_cap (J),               E_ind (J),           E_elec[1] (J),               p_elec[1],            E_mag[1] (J),                p_mag[1]
 2.000000000e+00,        +2.212584595e-02,        +1.176653131e-02,        +0.000000000e+00,        +0.000000000e+00,        +2.005547747e-02,        +9.064276011e-01,        +5.850333690e-03,        +4.972012172e-01
 2.100000000e+00,        +2.201854353e-02,        +1.180557416e-02,        +0.000000000e+00,        +0.000000000e+00,        +1.995845764e-02,        +9.064385938e-01,        +5.869462663e-03,        +4.971772304e-01
 2.200000000e+00,        +2.190759403e-02,        +1.184619279e-02,        +0.000000000e+00,        +0.000000000e+00,        +1.985813791e-02,        +9.064499680e-01,        +5.889365422e-03,        +4.971525896e-01
 2.300000000e+00,        +2.179318679e-02,        +1.188834636e-02,        +0.000000000e+00,        +0.000000000e+00,        +1.975468937e-02,        +9.064617104e-01,        +5.910022164e-03,        +4.971273533e-01
 2.400000000e+00,        +2.167551370e-02,        +1.193199337e-02,        +0.000000000e+00,        +0.000000000e+00,        +1.964828544e-02,        +9.064738078e-01,        +5.931412755e-03,        +4.971015798e-01
 2.500000000e+00,        +2.155476872e-02,        +1.197709173e-02,        +0.000000000e+00,        +0.000000000e+00,        +1.953910139e-02,        +9.064862464e-01,        +5.953516788e-03,        +4.970753272e-01
 2.600000000e+00,        +2.143114740e-02,        +1.202359890e-02,        +0.000000000e+00,        +0.000000000e+00,        +1.942731395e-02,        +9.064990121e-01,        +5.976313639e-03,        +4.970486530e-01
 2.700000000e+00,        +2.130484637e-02,        +1.207147203e-02,        +0.000000000e+00,        +0.000000000e+00,        +1.931310083e-02,        +9.065120908e-01,        +5.999782515e-03,        +4.970216142e-01
 2.800000000e+00,        +2.117606289e-02,        +1.212066800e-02,        +0.000000000e+00,        +0.000000000e+00,        +1.919664031e-02,        +9.065254675e-01,        +6.023902508e-03,        +4.969942670e-01
 2.900000000e+00,        +2.104499441e-02,        +1.217114357e-02,        +0.000000000e+00,        +0.000000000e+00,        +1.907811086e-02,        +9.065391273e-01,        +6.048652644e-03,        +4.969666663e-01
 3.000000000e+00,        +2.091183808e-02,        +1.222285545e-02,        +0.000000000e+00,        +0.000000000e+00,        +1.895769069e-02,        +9.065530544e-01,        +6.074011929e-03,        +4.969388661e-01
 3.100000000e+00,        +2.077679043e-02,        +1.227576042e-02,        +0.000000000e+00,        +0.000000000e+00,        +1.883555741e-02,        +9.065672327e-01,        +6.099959395e-03,        +4.969109193e-01
 3.200000000e+00,        +2.064004687e-02,        +1.232981537e-02,        +0.000000000e+00,        +0.000000000e+00,        +1.871188766e-02,        +9.065816455e-01,        +6.126474137e-03,        +4.968828771e-01
 3.300000000e+00,        +2.050180138e-02,        +1.238497745e-02,        +0.000000000e+00,        +0.000000000e+00,        +1.858685677e-02,        +9.065962756e-01,        +6.153535361e-03,        +4.968547895e-01
 3.400000000e+00,        +2.036224612e-02,        +1.244120405e-02,        +0.000000000e+00,        +0.000000000e+00,        +1.846063846e-02,        +9.066111052e-01,        +6.181122413e-03,        +4.968267047e-01
 3.500000000e+00,        +2.022157112e-02,        +1.249845298e-02,        +0.000000000e+00,        +0.000000000e+00,        +1.833340448e-02,        +9.066261159e-01,        +6.209214815e-03,        +4.967986696e-01
 3.600000000e+00,        +2.007996396e-02,        +1.255668245e-02,        +0.000000000e+00,        +0.000000000e+00,        +1.820532440e-02,        +9.066412887e-01,        +6.237792298e-03,        +4.967707292e-01
 3.700000000e+00,        +1.993760946e-02,        +1.261585115e-02,        +0.000000000e+00,        +0.000000000e+00,        +1.807656528e-02,        +9.066566040e-01,        +6.266834828e-03,        +4.967429269e-01
 3.800000000e+00,        +1.979468945e-02,        +1.267591833e-02,        +0.000000000e+00,        +0.000000000e+00,        +1.794729149e-02,        +9.066720414e-01,        +6.296322632e-03,        +4.967153043e-01
 3.900000000e+00,        +1.965138251e-02,        +1.273684381e-02,        +0.000000000e+00,        +0.000000000e+00,        +1.781766445e-02,        +9.066875801e-01,        +6.326236220e-03,        +4.966879013e-01
 4.000000000e+00,        +1.950786373e-02,        +1.279858803e-02,        +0.000000000e+00,        +0.000000000e+00,        +1.768784244e-02,        +9.067031984e-01,        +6.356556406e-03,        +4.966607559e-01
 4.100000000e+00,        +1.936430455e-02,        +1.286111211e-02,        +0.000000000e+00,        +0.000000000e+00,        +1.755798042e-02,        +9.067188741e-01,        +6.387264323e-03,        +4.966339044e-01
 4.200000000e+00,        +1.922087256e-02,        +1.292437784e-02,        +0.000000000e+00,        +0.000000000e+00,        +1.742822989e-02,        +9.067345844e-01,        +6.418341436e-03,        +4.966073813e-01
 4.300000000e+00,        +1.907773134e-02,        +1.298834774e-02,        +0.000000000e+00,        +0.000000000e+00,        +1.729873873e-02,        +9.067503056e-01,        +6.449769557e-03,        +4.965812195e-01
 4.400000000e+00,        +1.893504035e-02,        +1.305298502e-02,        +0.000000000e+00,        +0.000000000e+00,        +1.716965105e-02,        +9.067660137e-01,        +6.481530850e-03,        +4.965554498e-01
 4.500000000e+00,        +1.879295477e-02,        +1.311825369e-02,        +0.000000000e+00,        +0.000000000e+00,        +1.704110717e-02,        +9.067816838e-01,        +6.513607837e-03,        +4.965301018e-01
 4.600000000e+00,        +1.865162546e-02,        +1.318411845e-02,        +0.000000000e+00,        +0.000000000e+00,        +1.691324343e-02,        +9.067972905e-01,        +6.545983405e-03,        +4.965052028e-01
 4.700000000e+00,        +1.851119885e-02,        +1.325054479e-02,        +0.000000000e+00,        +0.000000000e+00,        +1.678619221e-02,        +9.068128077e-01,        +6.578640802e-03,        +4.964807791e-01
 4.800000000e+00,        +1.837181689e-02,        +1.331749894e-02,        +0.000000000e+00,        +0.000000000e+00,        +1.666008181e-02,        +9.068282090e-01,        +6.611563641e-03,        +4.964568549e-01
 4.900000000e+00,        +1.823361699e-02,        +1.338494787e-02,        +0.000000000e+00,        +0.000000000e+00,        +1.653503645e-02,        +9.068434671e-01,        +6.644735893e-03,        +4.964334532e-01
 5.000000000e+00,        +1.809673201e-02,        +1.345285928e-02,        +0.000000000e+00,        +0.000000000e+00,        +1.641117623e-02,        +9.068585544e-01,        +6.678141882e-03,        +4.964105952e-01
 5.100000000e+00,        +1.796129024e-02,        +1.352120158e-02,        +0.000000000e+00,        +0.000000000e+00,        +1.628861712e-02,        +9.068734429e-01,        +6.711766280e-03,        +4.963883009e-01
 5.200000000e+00,        +1.782741540e-02,        +1.358994390e-02,        +0.000000000e+00,        +0.000000000e+00,        +1.616747095e-02,        +9.068881039e-01,        +6.745594094e-03,        +4.963665888e-01
 5.300000000e+00,        +1.769522666e-02,        +1.365905602e-02,        +0.000000000e+00,        +0.000000000e+00,        +1.604784545e-02,        +9.069025085e-01,        +6.779610660e-03,        +4.963454760e-01
 5.400000000e+00,        +1.756483863e-02,        +1.372850838e-02,        +0.000000000e+00,        +0.000000000e+00,        +1.592984421e-02,        +9.069166274e-01,        +6.813801624e-03,        +4.963249785e-01
 5.500000000e+00,        +1.743636144e-02,        +1.379827205e-02,        +0.000000000e+00,        +0.000000000e+00,        +1.581356679e-02,        +9.069304309e-01,        +6.848152937e-03,        +4.963051108e-01
 5.600000000e+00,        +1.730990074e-02,        +1.386831867e-02,        +0.000000000e+00,        +0.000000000e+00,        +1.569910870e-02,        +9.069438892e-01,        +6.882650828e-03,        +4.962858866e-01
 5.700000000e+00,        +1.718555776e-02,        +1.393862047e-02,        +0.000000000e+00,        +0.000000000e+00,        +1.558656143e-02,        +9.069569723e-01,        +6.917281799e-03,        +4.962673180e-01
 5.800000000e+00,        +1.706342939e-02,        +1.400915017e-02,        +0.000000000e+00,        +0.000000000e+00,        +1.547601259e-02,        +9.069696500e-01,        +6.952032597e-03,        +4.962494166e-01
 5.900000000e+00,        +1.694360822e-02,        +1.407988097e-02,        +0.000000000e+00,        +0.000000000e+00,        +1.536754585e-02,        +9.069818921e-01,        +6.986890205e-03,        +4.962321925e-01
 6.000000000e+00,        +1.682618260e-02,        +1.415078654e-02,        +0.000000000e+00,        +0.000000000e+00,        +1.526124108e-02,        +9.069936683e-01,        +7.021841813e-03,        +4.962156551e-01
 6.100000000e+00,        +1.671123674e-02,        +1.422184092e-02,        +0.000000000e+00,        +0.000000000e+00,        +1.515717442e-02,        +9.070049486e-01,        +7.056874804e-03,        +4.961998130e-01
 6.200000000e+00,        +1.659885074e-02,        +1.429301852e-02,        +0.000000000e+00,        +0.000000000e+00,        +1.505541827e-02,        +9.070157030e-01,        +7.091976728e-03,        +4.961846736e-01
 6.300000000e+00,        +1.648910072e-02,        +1.436429405e-02,        +0.000000000e+00,        +0.000000000e+00,        +1.495604145e-02,        +9.070259018e-01,        +7.127135284e-03,        +4.961702439e-01
 6.400000000e+00,        +1.638205886e-02,        +1.443564251e-02,        +0.000000000e+00,        +0.000000000e+00,        +1.485910921e-02,        +9.070355157e-01,        +7.162338293e-03,        +4.961565298e-01
 6.500000000e+00,        +1.627779350e-02,        +1.450703908e-02,        +0.000000000e+00,        +0.000000000e+00,        +1.476468332e-02,        +9.070445157e-01,        +7.197573681e-03,        +4.961435368e-01
 6.600000000e+00,        +1.617636920e-02,        +1.457845915e-02,        +0.000000000e+00,        +0.000000000e+00,        +1.467282217e-02,        +9.070528734e-01,        +7.232829448e-03,        +4.961312696e-01
 6.700000000e+00,        +1.607784686e-02,        +1.464987820e-02,        +0.000000000e+00,        +0.000000000e+00,        +1.458358079e-02,        +9.070605611e-01,        +7.268093651e-03,        +4.961197323e-01
 6.800000000e+00,        +1.598228373e-02,        +1.472127180e-02,        +0.000000000e+00,        +0.000000000e+00,        +1.449701097e-02,        +9.070675515e-01,        +7.303354377e-03,        +4.961089283e-01
 6.900000000e+00,        +1.588973355e-02,        +1.479261554e-02,        +0.000000000e+00,        +0.000000000e+00,        +1.441316129e-02,        +9.070738185e-01,        +7.338599717e-03,        +4.960988607e-01
 7.000000000e+00,        +1.580024661e-02,        +1.486388499e-02,        +0.000000000e+00,        +0.000000000e+00,        +1.433207721e-02,        +9.070793367e-01,        +7.373817747e-03,        +4.960895319e-01
 7.100000000e+00,        +1.571386978e-02,        +1.493505564e-02,        +0.000000000e+00,        +0.000000000e+00,        +1.425380114e-02,        +9.070840816e-01,        +7.408996500e-03,        +4.960809440e-01
 7.200000000e+00,        +1.563064665e-02,        +1.500610286e-02,        +0.000000000e+00,        +0.000000000e+00,        +1.417837248e-02,        +9.070880301e-01,        +7.444123943e-03,        +4.960730986e-01
 7.300000000e+00,        +1.555061753e-02,        +1.507700185e-02,        +0.000000000e+00,        +0.000000000e+00,        +1.410582769e-02,        +9.070911600e-01,        +7.479187953e-03,        +4.960659968e-01
 7.400000000e+00,        +1.547381955e-02,        +1.514772761e-02,        +0.000000000e+00,        +0.000000000e+00,        +1.403620036e-02,        +9.070934505e-01,        +7.514176295e-03,        +4.960596394e-01
 7.500000000e+00,        +1.540028669e-02,        +1.521825484e-02,        +0.000000000e+00,        +0.000000000e+00,        +1.396952124e-02,        +9.070948824e-01,        +7.549076596e-03,        +4.960540270e-01
 7.600000000e+00,        +1.533004986e-02,        +1.528855796e-02,        +0.000000000e+00,        +0.000000000e+00,        +1.390581829e-02,        +9.070954376e-01,        +7.583876327e-03,        +4.960491595e-01
 7.700000000e+00,        +1.526313694e-02,        +1.535861102e-02,        +0.000000000e+00,        +0.000000000e+00,        +1.384511673e-02,        +9.070951001e-01,        +7.618562773e-03,        +4.960450370e-01
 7.800000000e+00,        +1.519957280e-02,        +1.542838768e-02,        +0.000000000e+00,        +0.000000000e+00,        +1.378743909e-02,        +9.070938550e-01,        +7.653123021e-03,        +4.960416590e-01
 7.900000000e+00,        +1.513937937e-02,        +1.549786115e-02,        +0.000000000e+00,        +0.000000000e+00,        +1.373280521e-02,        +9.070916897e-01,        +7.687543930e-03,        +4.960390247e-01
 8.000000000e+00,        +1.508257564e-02,        +1.556700416e-02,        +0.000000000e+00,        +0.000000000e+00,        +1.368123232e-02,        +9.070885930e-01,        +7.721812119e-03,        +4.960371333e-01
 8.100000000e+00,        +1.502917772e-02,        +1.563578893e-02,        +0.000000000e+00,        +0.000000000e+00,        +1.363273500e-02,        +9.070845560e-01,        +7.755913938e-03,        +4.960359836e-01
 8.200000000e+00,        +1.497919885e-02,        +1.570418709e-02,        +0.000000000e+00,        +0.000000000e+00,        +1.358732527e-02,        +9.070795715e-01,        +7.789835459e-03,        +4.960355742e-01
 8.300000000e+00,        +1.493264938e-02,        +1.577216971e-02,        +0.000000000e+00,        +0.000000000e+00,        +1.354501254e-02,        +9.070736344e-01,        +7.823562452e-03,        +4.960359036e-01
 8.400000000e+00,        +1.488953683e-02,        +1.583970721e-02,        +0.000000000e+00,        +0.000000000e+00,        +1.350580366e-02,        +9.070667420e-01,        +7.857080371e-03,        +4.960369702e-01
 8.500000000e+00,        +1.484986589e-02,        +1.590676936e-02,        +0.000000000e+00,        +0.000000000e+00,        +1.346970292e-02,        +9.070588933e-01,        +7.890374339e-03,        +4.960387719e-01
 8.600000000e+00,        +1.481363838e-02,        +1.597332525e-02,        +0.000000000e+00,        +0.000000000e+00,        +1.343671202e-02,        +9.070500898e-01,        +7.923429131e-03,        +4.960413068e-01
 8.700000000e+00,        +1.478085327e-02,        +1.603934324e-02,        +0.000000000e+00,        +0.000000000e+00,        +1.340683011e-02,        +9.070403351e-01,        +7.956229165e-03,        +4.960445727e-01
 8.800000000e+00,        +1.475150669e-02,        +1.610479098e-02,        +0.000000000e+00,        +0.000000000e+00,        +1.338005373e-02,        +9.070296352e-01,        +7.988758491e-03,        +4.960485671e-01
 8.900000000e+00,        +1.472559186e-02,        +1.616963535e-02,        +0.000000000e+00,        +0.000000000e+00,        +1.335637685e-02,        +9.070179982e-01,        +8.021000776e-03,        +4.960532877e-01
 9.000000000e+00,        +1.470309911e-02,        +1.623384246e-02,        +0.000000000e+00,        +0.000000000e+00,        +1.333579080e-02,        +9.070054344e-01,        +8.052939302e-03,        +4.960587317e-01
 9.100000000e+00,        +1.468401585e-02,        +1.629737765e-02,        +0.000000000e+00,        +0.000000000e+00,        +1.331828427e-02,        +9.069919567e-01,        +8.084556957e-03,        +4.960648965e-01
 9.200000000e+00,        +1.466832653e-02,        +1.636020546e-02,        +0.000000000e+00,        +0.000000000e+00,        +1.330384329e-02,        +9.069775798e-01,        +8.115836231e-03,        +4.960717792e-01
 9.300000000e+00,        +1.465601259e-02,        +1.642228965e-02,        +0.000000000e+00,        +0.000000000e+00,        +1.329245119e-02,        +9.069623210e-01,        +8.146759214e-03,        +4.960793768e-01
 9.400000000e+00,        +1.464705246e-02,        +1.648359317e-02,        +0.000000000e+00,        +0.000000000e+00,        +1.328408856e-02,        +9.069461995e-01,        +8.177307597e-03,        +4.960876861e-01
 9.500000000e+00,        +1.464142148e-02,        +1.654407821e-02,        +0.000000000e+00,        +0.000000000e+00,        +1.327873321e-02,        +9.069292368e-01,        +8.207462670e-03,        +4.960967040e-01
 9.600000000e+00,        +1.463909190e-02,        +1.660370616e-02,        +0.000000000e+00,        +0.000000000e+00,        +1.327636015e-02,        +9.069114563e-01,        +8.237205334e-03,        +4.961064269e-01
 9.700000000e+00,        +1.464003278e-02,        +1.666243764e-02,        +0.000000000e+00,        +0.000000000e+00,        +1.327694154e-02,        +9.068928835e-01,        +8.266516100e-03,        +4.961168515e-01
 9.800000000e+00,        +1.464420997e-02,        +1.672023256e-02,        +0.000000000e+00,        +0.000000000e+00,        +1.328044662e-02,        +9.068735460e-01,        +8.295375103e-03,        +4.961279740e-01
 9.900000000e+00,        +1.465158608e-02,        +1.677705008e-02,        +0.000000000e+00,        +0.000000000e+00,        +1.328684172e-02,        +9.068534729e-01,        +8.323762114e-03,        +4.961397906e-01
 1.000000000e+01,        +1.466212038e-02,        +1.683284869e-02,        +0.000000000e+00,        +0.000000000e+00,        +1.329609014e-02,        +9.068326952e-01,        +8.351656553e-03,        +4.961522976e-01
 1.010000000e+01,        +1.467576879e-02,        +1.688758623e-02,        +0.000000000e+00,        +0.000000000e+00,        +1.330815218e-02,        +9.068112457e-01,        +8.379037509e-03,        +4.961654907e-01
 1.020000000e+01,        +1.469248382e-02,        +1.694121993e-02,        +0.000000000e+00,        +0.000000000e+00,        +1.332298504e-02,        +9.067891585e-01,        +8.405883762e-03,        +4.961793657e-01
 1.030000000e+01,        +1.471221451e-02,        +1.699370648e-02,        +0.000000000e+00,        +0.000000000e+00,        +1.334054280e-02,        +9.067664693e-01,        +8.432173804e-03,        +4.961939184e-01
 1.040000000e+01,        +1.473490638e-02,        +1.704500203e-02,        +0.000000000e+00,        +0.000000000e+00,        +1.336077638e-02,        +9.067432150e-01,        +8.457885866e-03,        +4.962091440e-01
 1.050000000e+01,        +1.476050140e-02,        +1.709506233e-02,        +0.000000000e+00,        +0.000000000e+00,        +1.338363348e-02,        +9.067194338e-01,        +8.482997953e-03,        +4.962250378e-01
 1.060000000e+01,        +1.478893797e-02,        +1.714384276e-02,        +0.000000000e+00,        +0.000000000e+00,        +1.340905855e-02,        +9.066951647e-01,        +8.507487874e-03,        +4.962415950e-01
 1.070000000e+01,        +1.482015081e-02,        +1.719129837e-02,        +0.000000000e+00,        +0.000000000e+00,        +1.343699277e-02,        +9.066704480e-01,        +8.531333279e-03,        +4.962588103e-01
 1.080000000e+01,        +1.485407101e-02,        +1.723738405e-02,        +0.000000000e+00,        +0.000000000e+00,        +1.346737403e-02,        +9.066453245e-01,        +8.554511700e-03,        +4.962766785e-01
 1.090000000e+01,        +1.489062594e-02,        +1.728205452e-02,        +0.000000000e+00,        +0.000000000e+00,        +1.350013685e-02,        +9.066198358e-01,        +8.577000598e-03,        +4.962951939e-01
 1.100000000e+01,        +1.492973930e-02,        +1.732526450e-02,        +0.000000000e+00,        +0.000000000e+00,        +1.353521243e-02,        +9.065940238e-01,        +8.598777403e-03,        +4.963143508e-01
