         f (GHz),              E_elec (J),               E_mag (J),               E_cap (J),               E_ind (J)
 2.000000000e+00,        +2.720832354e-02,        +1.008386331e-02,        +0.000000000e+00,        +0.000000000e+00
 2.100000000e+00,        +2.694139467e-02,        +1.014187275e-02,        +0.000000000e+00,        +0.000000000e+00
 2.200000000e+00,        +2.666778851e-02,        +1.020188359e-02,        +0.000000000e+00,        +0.000000000e+00
 2.300000000e+00,        +2.638818265e-02,        +1.026380752e-02,        +0.000000000e+00,        +0.000000000e+00
 2.400000000e+00,        +2.610324622e-02,        +1.032755756e-02,        +0.000000000e+00,        +0.000000000e+00
 2.500000000e+00,        +2.581363727e-02,        +1.039304844e-02,        +0.000000000e+00,        +0.000000000e+00
 2.600000000e+00,        +2.552000055e-02,        +1.046019696e-02,        +0.000000000e+00,        +0.000000000e+00
 2.700000000e+00,        +2.522296534e-02,        +1.052892228e-02,        +0.000000000e+00,        +0.000000000e+00
 2.800000000e+00,        +2.492314376e-02,        +1.059914621e-02,        +0.000000000e+00,        +0.000000000e+00
 2.900000000e+00,        +2.462112911e-02,        +1.067079341e-02,        +0.000000000e+00,        +0.000000000e+00
 3.000000000e+00,        +2.431749459e-02,        +1.074379161e-02,        +0.000000000e+00,        +0.000000000e+00
 3.100000000e+00,        +2.401279220e-02,        +1.081807179e-02,        +0.000000000e+00,        +0.000000000e+00
 3.200000000e+00,        +2.370755185e-02,        +1.089356827e-02,        +0.000000000e+00,        +0.000000000e+00
 3.300000000e+00,        +2.340228075e-02,        +1.097021885e-02,        +0.000000000e+00,        +0.000000000e+00
 3.400000000e+00,        +2.309746289e-02,        +1.104796487e-02,        +0.000000000e+00,        +0.000000000e+00
 3.500000000e+00,        +2.279355878e-02,        +1.112675125e-02,        +0.000000000e+00,        +0.000000000e+00
 3.600000000e+00,        +2.249100535e-02,        +1.120652650e-02,        +0.000000000e+00,        +0.000000000e+00
 3.700000000e+00,        +2.219021598e-02,        +1.128724273e-02,        +0.000000000e+00,        +0.000000000e+00
 3.800000000e+00,        +2.189158069e-02,        +1.136885562e-02,        +0.000000000e+00,        +0.000000000e+00
 3.900000000e+00,        +2.159546646e-02,        +1.145132437e-02,        +0.000000000e+00,        +0.000000000e+00
 4.000000000e+00,        +2.130221761e-02,        +1.153461163e-02,        +0.000000000e+00,        +0.000000000e+00
 4.100000000e+00,        +2.101215634e-02,        +1.161868344e-02,        +0.000000000e+00,        +0.000000000e+00
 4.200000000e+00,        +2.072558335e-02,        +1.170350913e-02,        +0.000000000e+00,        +0.000000000e+00
 4.300000000e+00,        +2.044277848e-02,        +1.178906122e-02,        +0.000000000e+00,        +0.000000000e+00
 4.400000000e+00,        +2.016400141e-02,        +1.187531530e-02,        +0.000000000e+00,        +0.000000000e+00
 4.500000000e+00,        +1.988949251e-02,        +1.196224991e-02,        +0.000000000e+00,        +0.000000000e+00
 4.600000000e+00,        +1.961947357e-02,        +1.204984645e-02,        +0.000000000e+00,        +0.000000000e+00
 4.700000000e+00,        +1.935414867e-02,        +1.213808897e-02,        +0.000000000e+00,        +0.000000000e+00
 4.800000000e+00,        +1.909370507e-02,        +1.222696412e-02,        +0.000000000e+00,        +0.000000000e+00
 4.900000000e+00,        +1.883831400e-02,        +1.231646097e-02,        +0.000000000e+00,        +0.000000000e+00
 5.000000000e+00,        +1.858813158e-02,        +1.240657085e-02,        +0.000000000e+00,        +0.000000000e+00
 5.100000000e+00,        +1.834329968e-02,        +1.249728723e-02,        +0.000000000e+00,        +0.000000000e+00
 5.200000000e+00,        +1.810394676e-02,        +1.258860560e-02,        +0.000000000e+00,        +0.000000000e+00
 5.300000000e+00,        +1.787018872e-02,        +1.268052328e-02,        +0.000000000e+00,        +0.000000000e+00
 5.400000000e+00,        +1.764212975e-02,        +1.277303930e-02,        +0.000000000e+00,        +0.000000000e+00
 5.500000000e+00,        +1.741986309e-02,        +1.286615425e-02,        +0.000000000e+00,        +0.000000000e+00
 5.600000000e+00,        +1.720347184e-02,        +1.295987016e-02,        +0.000000000e+00,        +0.000000000e+00
 5.700000000e+00,        +1.699302971e-02,        +1.305419031e-02,        +0.000000000e+00,        +0.000000000e+00
 5.800000000e+00,        +1.678860176e-02,        +1.314911916e-02,        +0.000000000e+00,        +0.000000000e+00
 5.900000000e+00,        +1.659024505e-02,        +1.324466214e-02,        +0.000000000e+00,        +0.000000000e+00
 6.000000000e+00,        +1.639800937e-02,        +1.334082556e-02,        +0.000000000e+00,        +0.000000000e+00
 6.100000000e+00,        +1.621193784e-02,        +1.343761645e-02,        +0.000000000e+00,        +0.000000000e+00
 6.200000000e+00,        +1.603206749e-02,        +1.353504246e-02,        +0.000000000e+00,        +0.000000000e+00
 6.300000000e+00,        +1.585842988e-02,        +1.363311166e-02,        +0.000000000e+00,        +0.000000000e+00
 6.400000000e+00,        +1.569105159e-02,        +1.373183247e-02,        +0.000000000e+00,        +0.000000000e+00
 6.500000000e+00,        +1.552995475e-02,        +1.383121350e-02,        +0.000000000e+00,        +0.000000000e+00
 6.600000000e+00,        +1.537515750e-02,        +1.393126342e-02,        +0.000000000e+00,        +0.000000000e+00
 6.700000000e+00,        +1.522667442e-02,        +1.403199082e-02,        +0.000000000e+00,        +0.000000000e+00
 6.800000000e+00,        +1.508451696e-02,        +1.413340407e-02,        +0.000000000e+00,        +0.000000000e+00
 6.900000000e+00,        +1.494869378e-02,        +1.423551123e-02,        +0.000000000e+00,        +0.000000000e+00
 7.000000000e+00,        +1.481921112e-02,        +1.433831985e-02,        +0.000000000e+00,        +0.000000000e+00
 7.100000000e+00,        +1.469607311e-02,        +1.444183687e-02,        +0.000000000e+00,        +0.000000000e+00
 7.200000000e+00,        +1.457928201e-02,        +1.454606849e-02,        +0.000000000e+00,        +0.000000000e+00
 7.300000000e+00,        +1.446883854e-02,        +1.465101999e-02,        +0.000000000e+00,        +0.000000000e+00
 7.400000000e+00,        +1.436474201e-02,        +1.475669563e-02,        +0.000000000e+00,        +0.000000000e+00
 7.500000000e+00,        +1.426699061e-02,        +1.486309846e-02,        +0.000000000e+00,        +0.000000000e+00
 7.600000000e+00,        +1.417558149e-02,        +1.497023021e-02,        +0.000000000e+00,        +0.000000000e+00
 7.700000000e+00,        +1.409051095e-02,        +1.507809110e-02,        +0.000000000e+00,        +0.000000000e+00
 7.800000000e+00,        +1.401177451e-02,        +1.518667972e-02,        +0.000000000e+00,        +0.000000000e+00
 7.900000000e+00,        +1.393936705e-02,        +1.529599284e-02,        +0.000000000e+00,        +0.000000000e+00
 8.000000000e+00,        +1.387328280e-02,        +1.540602524e-02,        +0.000000000e+00,        +0.000000000e+00
 8.100000000e+00,        +1.381351541e-02,        +1.551676955e-02,        +0.000000000e+00,        +0.000000000e+00
 8.200000000e+00,        +1.376005792e-02,        +1.562821611e-02,        +0.000000000e+00,        +0.000000000e+00
 8.300000000e+00,        +1.371290278e-02,        +1.574035271e-02,        +0.000000000e+00,        +0.000000000e+00
 8.400000000e+00,        +1.367204174e-02,        +1.585316447e-02,        +0.000000000e+00,        +0.000000000e+00
 8.500000000e+00,        +1.363746581e-02,        +1.596663364e-02,        +0.000000000e+00,        +0.000000000e+00
 8.600000000e+00,        +1.360916512e-02,        +1.608073935e-02,        +0.000000000e+00,        +0.000000000e+00
 8.700000000e+00,        +1.358712882e-02,        +1.619545751e-02,        +0.000000000e+00,        +0.000000000e+00
 8.800000000e+00,        +1.357134490e-02,        +1.631076049e-02,        +0.000000000e+00,        +0.000000000e+00
 8.900000000e+00,        +1.356179998e-02,        +1.642661701e-02,        +0.000000000e+00,        +0.000000000e+00
 9.000000000e+00,        +1.355847912e-02,        +1.654299186e-02,        +0.000000000e+00,        +0.000000000e+00
 9.100000000e+00,        +1.356136559e-02,        +1.665984572e-02,        +0.000000000e+00,        +0.000000000e+00
 9.200000000e+00,        +1.357044054e-02,        +1.677713490e-02,        +0.000000000e+00,        +0.000000000e+00
 9.300000000e+00,        +1.358568273e-02,        +1.689481118e-02,        +0.000000000e+00,        +0.000000000e+00
 9.400000000e+00,        +1.360706822e-02,        +1.701282153e-02,        +0.000000000e+00,        +0.000000000e+00
 9.500000000e+00,        +1.363456997e-02,        +1.713110792e-02,        +0.000000000e+00,        +0.000000000e+00
 9.600000000e+00,        +1.366815749e-02,        +1.724960707e-02,        +0.000000000e+00,        +0.000000000e+00
 9.700000000e+00,        +1.370779641e-02,        +1.736825026e-02,        +0.000000000e+00,        +0.000000000e+00
 9.800000000e+00,        +1.375344802e-02,        +1.748696311e-02,        +0.000000000e+00,        +0.000000000e+00
 9.900000000e+00,        +1.380506886e-02,        +1.760566536e-02,        +0.000000000e+00,        +0.000000000e+00
 1.000000000e+01,        +1.386261017e-02,        +1.772427067e-02,        +0.000000000e+00,        +0.000000000e+00
 1.010000000e+01,        +1.392601741e-02,        +1.784268643e-02,        +0.000000000e+00,        +0.000000000e+00
 1.020000000e+01,        +1.399522972e-02,        +1.796081361e-02,        +0.000000000e+00,        +0.000000000e+00
 1.030000000e+01,        +1.407017934e-02,        +1.807854656e-02,        +0.000000000e+00,        +0.000000000e+00
 1.040000000e+01,        +1.415079105e-02,        +1.819577290e-02,        +0.000000000e+00,        +0.000000000e+00
 1.050000000e+01,        +1.423698162e-02,        +1.831237338e-02,        +0.000000000e+00,        +0.000000000e+00
 1.060000000e+01,        +1.432865912e-02,        +1.842822180e-02,        +0.000000000e+00,        +0.000000000e+00
 1.070000000e+01,        +1.442572240e-02,        +1.854318493e-02,        +0.000000000e+00,        +0.000000000e+00
 1.080000000e+01,        +1.452806041e-02,        +1.865712248e-02,        +0.000000000e+00,        +0.000000000e+00
 1.090000000e+01,        +1.463555162e-02,        +1.876988714e-02,        +0.000000000e+00,        +0.000000000e+00
 1.100000000e+01,        +1.474806342e-02,        +1.888132456e-02,        +0.000000000e+00,        +0.000000000e+00
 1.110000000e+01,        +1.486545149e-02,        +1.899127351e-02,        +0.000000000e+00,        +0.000000000e+00
 1.120000000e+01,        +1.498755927e-02,        +1.909956596e-02,        +0.000000000e+00,        +0.000000000e+00
 1.130000000e+01,        +1.511421737e-02,        +1.920602731e-02,        +0.000000000e+00,        +0.000000000e+00
 1.140000000e+01,        +1.524524305e-02,        +1.931047665e-02,        +0.000000000e+00,        +0.000000000e+00
 1.150000000e+01,        +1.538043980e-02,        +1.941272703e-02,        +0.000000000e+00,        +0.000000000e+00
 1.160000000e+01,        +1.551959683e-02,        +1.951258588e-02,        +0.000000000e+00,        +0.000000000e+00
 1.170000000e+01,        +1.566248879e-02,        +1.960985544e-02,        +0.000000000e+00,        +0.000000000e+00
 1.180000000e+01,        +1.580887540e-02,        +1.970433328e-02,        +0.000000000e+00,        +0.000000000e+00
 1.190000000e+01,        +1.595850128e-02,        +1.979581291e-02,        +0.000000000e+00,        +0.000000000e+00
 1.200000000e+01,        +1.611109577e-02,        +1.988408442e-02,        +0.000000000e+00,        +0.000000000e+00
 1.210000000e+01,        +1.626637293e-02,        +1.996893526e-02,        +0.000000000e+00,        +0.000000000e+00
 1.220000000e+01,        +1.642403163e-02,        +2.005015102e-02,        +0.000000000e+00,        +0.000000000e+00
 1.230000000e+01,        +1.658375569e-02,        +2.012751640e-02,        +0.000000000e+00,        +0.000000000e+00
 1.240000000e+01,        +1.674521421e-02,        +2.020081612e-02,        +0.000000000e+00,        +0.000000000e+00
 1.250000000e+01,        +1.690806205e-02,        +2.026983601e-02,        +0.000000000e+00,        +0.000000000e+00
 1.260000000e+01,        +1.707194037e-02,        +2.033436412e-02,        +0.000000000e+00,        +0.000000000e+00
 1.270000000e+01,        +1.723647740e-02,        +2.039419186e-02,        +0.000000000e+00,        +0.000000000e+00
 1.280000000e+01,        +1.740128932e-02,        +2.044911530e-02,        +0.000000000e+00,        +0.000000000e+00
 1.290000000e+01,        +1.756598126e-02,        +2.049893641e-02,        +0.000000000e+00,        +0.000000000e+00
 1.300000000e+01,        +1.773014857e-02,        +2.054346441e-02,        +0.000000000e+00,        +0.000000000e+00
 1.310000000e+01,        +1.789337807e-02,        +2.058251706e-02,        +0.000000000e+00,        +0.000000000e+00
 1.320000000e+01,        +1.805524964e-02,        +2.061592213e-02,        +0.000000000e+00,        +0.000000000e+00
 1.330000000e+01,        +1.821533782e-02,        +2.064351867e-02,        +0.000000000e+00,        +0.000000000e+00
 1.340000000e+01,        +1.837321357e-02,        +2.066515843e-02,        +0.000000000e+00,        +0.000000000e+00
 1.350000000e+01,        +1.852844626e-02,        +2.068070718e-02,        +0.000000000e+00,        +0.000000000e+00
 1.360000000e+01,        +1.868060563e-02,        +2.069004604e-02,        +0.000000000e+00,        +0.000000000e+00
 1.370000000e+01,        +1.882926395e-02,        +2.069307266e-02,        +0.000000000e+00,        +0.000000000e+00
 1.380000000e+01,        +1.897399826e-02,        +2.068970249e-02,        +0.000000000e+00,        +0.000000000e+00
 1.390000000e+01,        +1.911439262e-02,        +2.067986981e-02,        +0.000000000e+00,        +0.000000000e+00
 1.400000000e+01,        +1.925004050e-02,        +2.066352874e-02,        +0.000000000e+00,        +0.000000000e+00
 1.410000000e+01,        +1.938054709e-02,        +2.064065414e-02,        +0.000000000e+00,        +0.000000000e+00
 1.420000000e+01,        +1.950553168e-02,        +2.061124239e-02,        +0.000000000e+00,        +0.000000000e+00
 1.430000000e+01,        +1.962463001e-02,        +2.057531195e-02,        +0.000000000e+00,        +0.000000000e+00
 1.440000000e+01,        +1.973749652e-02,        +2.053290386e-02,        +0.000000000e+00,        +0.000000000e+00
 1.450000000e+01,        +1.984380657e-02,        +2.048408208e-02,        +0.000000000e+00,        +0.000000000e+00
 1.460000000e+01,        +1.994325854e-02,        +2.042893355e-02,        +0.000000000e+00,        +0.000000000e+00
 1.470000000e+01,        +2.003557575e-02,        +2.036756819e-02,        +0.000000000e+00,        +0.000000000e+00
 1.480000000e+01,        +2.012050827e-02,        +2.030011868e-02,        +0.000000000e+00,        +0.000000000e+00
 1.490000000e+01,        +2.019783450e-02,        +2.022673999e-02,        +0.000000000e+00,        +0.000000000e+00
 1.500000000e+01,        +2.026736257e-02,        +2.014760881e-02,        +0.000000000e+00,        +0.000000000e+00
 1.510000000e+01,        +2.032893147e-02,        +2.006292273e-02,        +0.000000000e+00,        +0.000000000e+00
 1.520000000e+01,        +2.038241194e-02,        +1.997289926e-02,        +0.000000000e+00,        +0.000000000e+00
 1.530000000e+01,        +2.042770707e-02,        +1.987777467e-02,        +0.000000000e+00,        +0.000000000e+00
 1.540000000e+01,        +2.046475267e-02,        +1.977780268e-02,        +0.000000000e+00,        +0.000000000e+00
 1.550000000e+01,        +2.049351728e-02,        +1.967325295e-02,        +0.000000000e+00,        +0.000000000e+00
 1.560000000e+01,        +2.051400196e-02,        +1.956440949e-02,        +0.000000000e+00,        +0.000000000e+00
 1.570000000e+01,        +2.052623978e-02,        +1.945156893e-02,        +0.000000000e+00,        +0.000000000e+00
 1.580000000e+01,        +2.053029497e-02,        +1.933503872e-02,        +0.000000000e+00,        +0.000000000e+00
 1.590000000e+01,        +2.052626194e-02,        +1.921513520e-02,        +0.000000000e+00,        +0.000000000e+00
 1.600000000e+01,        +2.051426398e-02,        +1.909218172e-02,        +0.000000000e+00,        +0.000000000e+00
 1.610000000e+01,        +2.049445173e-02,        +1.896650666e-02,        +0.000000000e+00,        +0.000000000e+00
 1.620000000e+01,        +2.046700157e-02,        +1.883844154e-02,        +0.000000000e+00,        +0.000000000e+00
 1.630000000e+01,        +2.043211371e-02,        +1.870831910e-02,        +0.000000000e+00,        +0.000000000e+00
 1.640000000e+01,        +2.039001032e-02,        +1.857647153e-02,        +0.000000000e+00,        +0.000000000e+00
 1.650000000e+01,        +2.034093347e-02,        +1.844322867e-02,        +0.000000000e+00,        +0.000000000e+00
 1.660000000e+01,        +2.028514303e-02,        +1.830891643e-02,        +0.000000000e+00,        +0.000000000e+00
 1.670000000e+01,        +2.022291457e-02,        +1.817385526e-02,        +0.000000000e+00,        +0.000000000e+00
 1.680000000e+01,        +2.015453725e-02,        +1.803835880e-02,        +0.000000000e+00,        +0.000000000e+00
 1.690000000e+01,        +2.008031176e-02,        +1.790273264e-02,        +0.000000000e+00,        +0.000000000e+00
 1.700000000e+01,        +2.000054828e-02,        +1.776727321e-02,        +0.000000000e+00,        +0.000000000e+00
 1.710000000e+01,        +1.991556449e-02,        +1.763226689e-02,        +0.000000000e+00,        +0.000000000e+00
 1.720000000e+01,        +1.982568375e-02,        +1.749798916e-02,        +0.000000000e+00,        +0.000000000e+00
 1.730000000e+01,        +1.973123327e-02,        +1.736470399e-02,        +0.000000000e+00,        +0.000000000e+00
 1.740000000e+01,        +1.963254245e-02,        +1.723266327e-02,        +0.000000000e+00,        +0.000000000e+00
 1.750000000e+01,        +1.952994131e-02,        +1.710210646e-02,        +0.000000000e+00,        +0.000000000e+00
 1.760000000e+01,        +1.942375901e-02,        +1.697326029e-02,        +0.000000000e+00,        +0.000000000e+00
 1.770000000e+01,        +1.931432255e-02,        +1.684633860e-02,        +0.000000000e+00,        +0.000000000e+00
 1.780000000e+01,        +1.920195553e-02,        +1.672154225e-02,        +0.000000000e+00,        +0.000000000e+00
 1.790000000e+01,        +1.908697705e-02,        +1.659905918e-02,        +0.000000000e+00,        +0.000000000e+00
 1.800000000e+01,        +1.896970073e-02,        +1.647906452e-02,        +0.000000000e+00,        +0.000000000e+00
 1.810000000e+01,        +1.885043383e-02,        +1.636172071e-02,        +0.000000000e+00,        +0.000000000e+00
 1.820000000e+01,        +1.872947649e-02,        +1.624717783e-02,        +0.000000000e+00,        +0.000000000e+00
 1.830000000e+01,        +1.860712112e-02,        +1.613557385e-02,        +0.000000000e+00,        +0.000000000e+00
 1.840000000e+01,        +1.848365177e-02,        +1.602703498e-02,        +0.000000000e+00,        +0.000000000e+00
 1.850000000e+01,        +1.835934376e-02,        +1.592167609e-02,        +0.000000000e+00,        +0.000000000e+00
 1.860000000e+01,        +1.823446327e-02,        +1.581960113e-02,        +0.000000000e+00,        +0.000000000e+00
 1.870000000e+01,        +1.810926709e-02,        +1.572090355e-02,        +0.000000000e+00,        +0.000000000e+00
 1.880000000e+01,        +1.798400241e-02,        +1.562566682e-02,        +0.000000000e+00,        +0.000000000e+00
