         f (GHz),          |S[1][1]| (dB),     arg(S[1][1]) (deg.),          |S[2][1]| (dB),     arg(S[2][1]) (deg.),          |S[3][1]| (dB),     arg(S[3][1]) (deg.),          |S[4][1]| (dB),     arg(S[4][1]) (deg.)
 2.000000000e+00,        -1.635037264e+01,        -1.154903273e+02,        -1.033503459e-01,        -2.501542614e+01,        -5.281137002e+01,        +6.409935424e+01,        -6.218635386e+01,        +4.324418220e+01
 2.100000000e+00,        -1.596187133e+01,        -1.167424218e+02,        -1.130984871e-01,        -2.624522621e+01,        -5.234350039e+01,        +6.289822202e+01,        -6.157885765e+01,        +4.189656799e+01
 2.200000000e+00,        -1.559465881e+01,        -1.179916953e+02,        -1.231671758e-01,        -2.747222203e+01,        -5.190985529e+01,        +6.161368778e+01,        -6.101537837e+01,        +4.022951517e+01
 2.300000000e+00,        -1.524696615e+01,        -1.192380852e+02,        -1.335372276e-01,        -2.869633487e+01,        -5.150830645e+01,        +6.026992195e+01,        -6.049574240e+01,        +3.831930368e+01
 2.400000000e+00,        -1.491724842e+01,        -1.204815342e+02,        -1.441890666e-01,        -2.991749193e+01,        -5.113661017e+01,        +5.888634849e+01,        -6.001821993e+01,        +3.622586108e+01
 2.500000000e+00,        -1.460414809e+01,        -1.217219909e+02,        -1.551027689e-01,        -3.113562640e+01,        -5.079252544e+01,        +5.747847048e+01,        -5.958031011e+01,        +3.399578406e+01
 2.600000000e+00,        -1.430646569e+01,        -1.229594093e+02,        -1.662581062e-01,        -3.235067754e+01,        -5.047388427e+01,        +5.605859343e+01,        -5.917920244e+01,        +3.166514119e+01
 2.700000000e+00,        -1.402313596e+01,        -1.241937493e+02,        -1.776345889e-01,        -3.356259063e+01,        -5.017863082e+01,        +5.463643351e+01,        -5.881203894e+01,        +2.926181375e+01
 2.800000000e+00,        -1.375320833e+01,        -1.254249765e+02,        -1.892115096e-01,        -3.477131708e+01,        -4.990484065e+01,        +5.321961739e+01,        -5.847605663e+01,        +2.680735799e+01
 2.900000000e+00,        -1.349583092e+01,        -1.266530624e+02,        -2.009679847e-01,        -3.597681434e+01,        -4.965072748e+01,        +5.181408727e+01,        -5.816865934e+01,        +2.431845137e+01
 3.000000000e+00,        -1.325023718e+01,        -1.278779842e+02,        -2.128829969e-01,        -3.717904595e+01,        -4.941464246e+01,        +5.042442687e+01,        -5.788744840e+01,        +2.180800309e+01
 3.100000000e+00,        -1.301573478e+01,        -1.290997249e+02,        -2.249354357e-01,        -3.837798148e+01,        -4.919506894e+01,        +4.905412256e+01,        -5.763023015e+01,        +1.928600321e+01
 3.200000000e+00,        -1.279169621e+01,        -1.303182736e+02,        -2.371041379e-01,        -3.957359650e+01,        -4.899061504e+01,        +4.770577247e+01,        -5.739501059e+01,        +1.676017181e+01
 3.300000000e+00,        -1.257755093e+01,        -1.315336248e+02,        -2.493679264e-01,        -4.076587253e+01,        -4.880000495e+01,        +4.638125383e+01,        -5.717998352e+01,        +1.423645637e+01
 3.400000000e+00,        -1.237277857e+01,        -1.327457790e+02,        -2.617056489e-01,        -4.195479698e+01,        -4.862207009e+01,        +4.508185719e+01,        -5.698351572e+01,        +1.171941431e+01
 3.500000000e+00,        -1.217690326e+01,        -1.339547424e+02,        -2.740962148e-01,        -4.314036306e+01,        -4.845574032e+01,        +4.380839431e+01,        -5.680413129e+01,        +9.212508576e+00
 3.600000000e+00,        -1.198948864e+01,        -1.351605266e+02,        -2.865186309e-01,        -4.432256973e+01,        -4.830003568e+01,        +4.256128514e+01,        -5.664049628e+01,        +6.718337076e+00
 3.700000000e+00,        -1.181013368e+01,        -1.363631490e+02,        -2.989520366e-01,        -4.550142159e+01,        -4.815405864e+01,        +4.134062813e+01,        -5.649140418e+01,        +4.238811782e+00
 3.800000000e+00,        -1.163846890e+01,        -1.375626325e+02,        -3.113757371e-01,        -4.667692877e+01,        -4.801698705e+01,        +4.014625744e+01,        -5.635576261e+01,        +1.775299200e+00
 3.900000000e+00,        -1.147415330e+01,        -1.387590054e+02,        -3.237692359e-01,        -4.784910684e+01,        -4.788806769e+01,        +3.897778954e+01,        -5.623258122e+01,        -6.712688963e-01
 4.000000000e+00,        -1.131687146e+01,        -1.399523013e+02,        -3.361122655e-01,        -4.901797670e+01,        -4.776661050e+01,        +3.783466146e+01,        -5.612096086e+01,        -3.100307754e+00
 4.100000000e+00,        -1.116633117e+01,        -1.411425591e+02,        -3.483848168e-01,        -5.018356442e+01,        -4.765198331e+01,        +3.671616233e+01,        -5.602008394e+01,        -5.511509849e+00
 4.200000000e+00,        -1.102226128e+01,        -1.423298228e+02,        -3.605671677e-01,        -5.134590118e+01,        -4.754360719e+01,        +3.562145956e+01,        -5.592920581e+01,        -7.904789115e+00
 4.300000000e+00,        -1.088440977e+01,        -1.435141415e+02,        -3.726399097e-01,        -5.250502306e+01,        -4.744095230e+01,        +3.454962063e+01,        -5.584764719e+01,        -1.028023621e+01
 4.400000000e+00,        -1.075254217e+01,        -1.446955691e+02,        -3.845839731e-01,        -5.366097098e+01,        -4.734353406e+01,        +3.349963154e+01,        -5.577478738e+01,        -1.263808250e+01
 4.500000000e+00,        -1.062643999e+01,        -1.458741646e+02,        -3.963806518e-01,        -5.481379047e+01,        -4.725090987e+01,        +3.247041238e+01,        -5.571005832e+01,        -1.497867094e+01
 4.600000000e+00,        -1.050589948e+01,        -1.470499913e+02,        -4.080116251e-01,        -5.596353164e+01,        -4.716267608e+01,        +3.146083064e+01,        -5.565293932e+01,        -1.730243253e+01
 4.700000000e+00,        -1.039073042e+01,        -1.482231175e+02,        -4.194589799e-01,        -5.711024891e+01,        -4.707846526e+01,        +3.046971275e+01,        -5.560295234e+01,        -1.960986714e+01
 4.800000000e+00,        -1.028075513e+01,        -1.493936158e+02,        -4.307052302e-01,        -5.825400096e+01,        -4.699794379e+01,        +2.949585408e+01,        -5.555965785e+01,        -2.190152796e+01
 4.900000000e+00,        -1.017580747e+01,        -1.505615631e+02,        -4.417333364e-01,        -5.939485053e+01,        -4.692080967e+01,        +2.853802774e+01,        -5.552265114e+01,        -2.417800873e+01
 5.000000000e+00,        -1.007573209e+01,        -1.517270405e+02,        -4.525267223e-01,        -6.053286427e+01,        -4.684679050e+01,        +2.759499238e+01,        -5.549155904e+01,        -2.643993342e+01
 5.100000000e+00,        -9.980383594e+00,        -1.528901335e+02,        -4.630692922e-01,        -6.166811259e+01,        -4.677564164e+01,        +2.666549915e+01,        -5.546603698e+01,        -2.868794769e+01
 5.200000000e+00,        -9.889625948e+00,        -1.540509311e+02,        -4.733454452e-01,        -6.280066954e+01,        -4.670714460e+01,        +2.574829798e+01,        -5.544576638e+01,        -3.092271200e+01
 5.300000000e+00,        -9.803331822e+00,        -1.552095267e+02,        -4.833400900e-01,        -6.393061260e+01,        -4.664110542e+01,        +2.484214324e+01,        -5.543045234e+01,        -3.314489590e+01
 5.400000000e+00,        -9.721382058e+00,        -1.563660171e+02,        -4.930386576e-01,        -6.505802255e+01,        -4.657735332e+01,        +2.394579891e+01,        -5.541982152e+01,        -3.535517343e+01
 5.500000000e+00,        -9.643665183e+00,        -1.575205028e+02,        -5.024271129e-01,        -6.618298335e+01,        -4.651573933e+01,        +2.305804329e+01,        -5.541362030e+01,        -3.755421930e+01
 5.600000000e+00,        -9.570076955e+00,        -1.586730879e+02,        -5.114919664e-01,        -6.730558193e+01,        -4.645613506e+01,        +2.217767330e+01,        -5.541161307e+01,        -3.974270587e+01
 5.700000000e+00,        -9.500519961e+00,        -1.598238798e+02,        -5.202202836e-01,        -6.842590810e+01,        -4.639843154e+01,        +2.130350843e+01,        -5.541358075e+01,        -4.192130065e+01
 5.800000000e+00,        -9.434903252e+00,        -1.609729893e+02,        -5.285996944e-01,        -6.954405435e+01,        -4.634253808e+01,        +2.043439436e+01,        -5.541931944e+01,        -4.409066431e+01
 5.900000000e+00,        -9.373142008e+00,        -1.621205303e+02,        -5.366184016e-01,        -7.066011573e+01,        -4.628838129e+01,        +1.956920625e+01,        -5.542863914e+01,        -4.625144908e+01
 6.000000000e+00,        -9.315157242e+00,        -1.632666199e+02,        -5.442651880e-01,        -7.177418968e+01,        -4.623590403e+01,        +1.870685171e+01,        -5.544136273e+01,        -4.840429755e+01
 6.100000000e+00,        -9.260875522e+00,        -1.644113781e+02,        -5.515294236e-01,        -7.288637594e+01,        -4.618506449e+01,        +1.784627356e+01,        -5.545732490e+01,        -5.054984169e+01
 6.200000000e+00,        -9.210228729e+00,        -1.655549278e+02,        -5.584010716e-01,        -7.399677633e+01,        -4.613583525e+01,        +1.698645223e+01,        -5.547637131e+01,        -5.268870216e+01
 6.300000000e+00,        -9.163153825e+00,        -1.666973947e+02,        -5.648706939e-01,        -7.510549468e+01,        -4.608820246e+01,        +1.612640799e+01,        -5.549835773e+01,        -5.482148781e+01
 6.400000000e+00,        -9.119592660e+00,        -1.678389073e+02,        -5.709294560e-01,        -7.621263664e+01,        -4.604216496e+01,        +1.526520282e+01,        -5.552314935e+01,        -5.694879540e+01
 6.500000000e+00,        -9.079491780e+00,        -1.689795966e+02,        -5.765691313e-01,        -7.731830956e+01,        -4.599773354e+01,        +1.440194217e+01,        -5.555062009e+01,        -5.907120941e+01
 6.600000000e+00,        -9.042802268e+00,        -1.701195963e+02,        -5.817821049e-01,        -7.842262239e+01,        -4.595493011e+01,        +1.353577636e+01,        -5.558065203e+01,        -6.118930210e+01
 6.700000000e+00,        -9.009479589e+00,        -1.712590425e+02,        -5.865613773e-01,        -7.952568548e+01,        -4.591378702e+01,        +1.266590189e+01,        -5.561313482e+01,        -6.330363357e+01
 6.800000000e+00,        -8.979483462e+00,        -1.723980737e+02,        -5.909005669e-01,        -8.062761051e+01,        -4.587434635e+01,        +1.179156245e+01,        -5.564796527e+01,        -6.541475208e+01
 6.900000000e+00,        -8.952777739e+00,        -1.735368308e+02,        -5.947939128e-01,        -8.172851030e+01,        -4.583665924e+01,        +1.091204981e+01,        -5.568504685e+01,        -6.752319434e+01
 7.000000000e+00,        -8.929330300e+00,        -1.746754572e+02,        -5.982362770e-01,        -8.282849874e+01,        -4.580078524e+01,        +1.002670446e+01,        -5.572428934e+01,        -6.962948604e+01
 7.100000000e+00,        -8.909112958e+00,        -1.758140981e+02,        -6.012231462e-01,        -8.392769064e+01,        -4.576679177e+01,        +9.134916200e+00,        -5.576560849e+01,        -7.173414236e+01
 7.200000000e+00,        -8.892101380e+00,        -1.769529015e+02,        -6.037506331e-01,        -8.502620159e+01,        -4.573475345e+01,        +8.236124480e+00,        -5.580892570e+01,        -7.383766870e+01
 7.300000000e+00,        -8.878275018e+00,        -1.780920171e+02,        -6.058154780e-01,        -8.612414785e+01,        -4.570475166e+01,        +7.329818688e+00,        -5.585416775e+01,        -7.594056139e+01
 7.400000000e+00,        -8.867617049e+00,        -1.792315971e+02,        -6.074150497e-01,        -8.722164622e+01,        -4.567687396e+01,        +6.415538301e+00,        -5.590126662e+01,        -7.804330862e+01
 7.500000000e+00,        -8.860114329e+00,        +1.796282044e+02,        -6.085473457e-01,        -8.831881394e+01,        -4.565121362e+01,        +5.492872950e+00,        -5.595015926e+01,        -8.014639139e+01
 7.600000000e+00,        -8.855757350e+00,        +1.784872309e+02,        -6.092109937e-01,        -8.941576851e+01,        -4.562786919e+01,        +4.561462416e+00,        -5.600078746e+01,        -8.225028457e+01
 7.700000000e+00,        -8.854540219e+00,        +1.773453239e+02,        -6.094052507e-01,        -9.051262766e+01,        -4.560694405e+01,        +3.620996562e+00,        -5.605309772e+01,        -8.435545813e+01
 7.800000000e+00,        -8.856460634e+00,        +1.762023229e+02,        -6.091300037e-01,        -9.160950913e+01,        -4.558854600e+01,        +2.671215231e+00,        -5.610704119e+01,        -8.646237842e+01
 7.900000000e+00,        -8.861519876e+00,        +1.750580649e+02,        -6.083857696e-01,        -9.270653061e+01,        -4.557278692e+01,        +1.711908108e+00,        -5.616257361e+01,        -8.857150959e+01
 8.000000000e+00,        -8.869722811e+00,        +1.739123849e+02,        -6.071736941e-01,        -9.380380962e+01,        -4.555978235e+01,        +7.429145788e-01,        -5.621965532e+01,        -9.068331513e+01
 8.100000000e+00,        -8.881077899e+00,        +1.727651156e+02,        -6.054955517e-01,        -9.490146336e+01,        -4.554965122e+01,        -2.358764197e-01,        -5.627825129e+01,        -9.279825950e+01
 8.200000000e+00,        -8.895597214e+00,        +1.716160875e+02,        -6.033537445e-01,        -9.599960860e+01,        -4.554251547e+01,        -1.224526536e+00,        -5.633833116e+01,        -9.491680993e+01
 8.300000000e+00,        -8.913296469e+00,        +1.704651285e+02,        -6.007513013e-01,        -9.709836156e+01,        -4.553849980e+01,        -2.223048119e+00,        -5.639986940e+01,        -9.703943831e+01
 8.400000000e+00,        -8.934195063e+00,        +1.693120642e+02,        -5.976918761e-01,        -9.819783778e+01,        -4.553773133e+01,        -3.231404311e+00,        -5.646284544e+01,        -9.916662324e+01
 8.500000000e+00,        -8.958316121e+00,        +1.681567176e+02,        -5.941797462e-01,        -9.929815203e+01,        -4.554033936e+01,        -4.249509101e+00,        -5.652724388e+01,        -1.012988521e+02
 8.600000000e+00,        -8.985686558e+00,        +1.669989090e+02,        -5.902198110e-01,        -1.003994181e+02,        -4.554645509e+01,        -5.277227343e+00,        -5.659305474e+01,        -1.034366235e+02
 8.700000000e+00,        -9.016337148e+00,        +1.658384558e+02,        -5.858175891e-01,        -1.015017489e+02,        -4.555621131e+01,        -6.314374744e+00,        -5.666027374e+01,        -1.055804494e+02
 8.800000000e+00,        -9.050302604e+00,        +1.646751726e+02,        -5.809792160e-01,        -1.026052558e+02,        -4.556974222e+01,        -7.360717802e+00,        -5.672890269e+01,        -1.077308578e+02
 8.900000000e+00,        -9.087621675e+00,        +1.635088707e+02,        -5.757114412e-01,        -1.037100494e+02,        -4.558718307e+01,        -8.415973721e+00,        -5.679894989e+01,        -1.098883955e+02
 9.000000000e+00,        -9.128337245e+00,        +1.623393577e+02,        -5.700216251e-01,        -1.048162383e+02,        -4.560866997e+01,        -9.479810300e+00,        -5.687043059e+01,        -1.120536305e+02
 9.100000000e+00,        -9.172496457e+00,        +1.611664381e+02,        -5.639177348e-01,        -1.059239300e+02,        -4.563433956e+01,        -1.055184580e+01,        -5.694336754e+01,        -1.142271549e+02
 9.200000000e+00,        -9.220150844e+00,        +1.599899119e+02,        -5.574083405e-01,        -1.070332300e+02,        -4.566432876e+01,        -1.163164881e+01,        -5.701779161e+01,        -1.164095881e+02
 9.300000000e+00,        -9.271356477e+00,        +1.588095753e+02,        -5.505026104e-01,        -1.081442422e+02,        -4.569877445e+01,        -1.271873815e+01,        -5.709374245e+01,        -1.186015793e+02
 9.400000000e+00,        -9.326174128e+00,        +1.576252194e+02,        -5.432103057e-01,        -1.092570683e+02,        -4.573781315e+01,        -1.381258279e+01,        -5.717126926e+01,        -1.208038108e+02
 9.500000000e+00,        -9.384669455e+00,        +1.564366307e+02,        -5.355417748e-01,        -1.103718081e+02,        -4.578158073e+01,        -1.491260184e+01,        -5.725043166e+01,        -1.230170011e+02
 9.600000000e+00,        -9.446913198e+00,        +1.552435898e+02,        -5.275079470e-01,        -1.114885590e+02,        -4.583021199e+01,        -1.601816466e+01,        -5.733130055e+01,        -1.252419078e+02
 9.700000000e+00,        -9.512981404e+00,        +1.540458714e+02,        -5.191203251e-01,        -1.126074161e+02,        -4.588384034e+01,        -1.712859110e+01,        -5.741395921e+01,        -1.274793305e+02
 9.800000000e+00,        -9.582955670e+00,        +1.528432435e+02,        -5.103909782e-01,        -1.137284720e+02,        -4.594259738e+01,        -1.824315196e+01,        -5.749850435e+01,        -1.297301144e+02
 9.900000000e+00,        -9.656923409e+00,        +1.516354668e+02,        -5.013325326e-01,        -1.148518165e+02,        -4.600661244e+01,        -1.936106963e+01,        -5.758504738e+01,        -1.319951527e+02
 1.000000000e+01,        -9.734978150e+00,        +1.504222939e+02,        -4.919581629e-01,        -1.159775367e+02,        -4.607601219e+01,        -2.048151916e+01,        -5.767371571e+01,        -1.342753901e+02
 1.010000000e+01,        -9.817219859e+00,        +1.492034681e+02,        -4.822815816e-01,        -1.171057166e+02,        -4.615092012e+01,        -2.160362958e+01,        -5.776465418e+01,        -1.365718251e+02
 1.020000000e+01,        -9.903755298e+00,        +1.479787232e+02,        -4.723170279e-01,        -1.182364373e+02,        -4.623145605e+01,        -2.272648581e+01,        -5.785802662e+01,        -1.388855132e+02
 1.030000000e+01,        -9.994698419e+00,        +1.467477816e+02,        -4.620792560e-01,        -1.193697765e+02,        -4.631773561e+01,        -2.384913109e+01,        -5.795401753e+01,        -1.412175696e+02
 1.040000000e+01,        -1.009017080e+01,        +1.455103534e+02,        -4.515835219e-01,        -1.205058084e+02,        -4.640986976e+01,        -2.497057010e+01,        -5.805283389e+01,        -1.435691718e+02
 1.050000000e+01,        -1.019030212e+01,        +1.442661349e+02,        -4.408455690e-01,        -1.216446038e+02,        -4.650796422e+01,        -2.608977284e+01,        -5.815470707e+01,        -1.459415618e+02
 1.060000000e+01,        -1.029523070e+01,        +1.430148069e+02,        -4.298816134e-01,        -1.227862297e+02,        -4.661211902e+01,        -2.720567949e+01,        -5.825989493e+01,        -1.483360492e+02
 1.070000000e+01,        -1.040510407e+01,        +1.417560331e+02,        -4.187083273e-01,        -1.239307493e+02,        -4.672242798e+01,        -2.831720631e+01,        -5.836868407e+01,        -1.507540136e+02
 1.080000000e+01,        -1.052007962e+01,        +1.404894578e+02,        -4.073428217e-01,        -1.250782217e+02,        -4.683897837e+01,        -2.942325268e+01,        -5.848139218e+01,        -1.531969069e+02
 1.090000000e+01,        -1.064032532e+01,        +1.392147033e+02,        -3.958026275e-01,        -1.262287020e+02,        -4.696185058e+01,        -3.052270959e+01,        -5.859837066e+01,        -1.556662563e+02
 1.100000000e+01,        -1.076602053e+01,        +1.379313676e+02,        -3.841056758e-01,        -1.273822408e+02,        -4.709111797e+01,        -3.161446950e+01,        -5.872000734e+01,        -1.581636673e+02
