         f (GHz),          |S[1][1]| (dB),     arg(S[1][1]) (deg.),          |S[2][1]| (dB),     arg(S[2][1]) (deg.),          |S[3][1]| (dB),     arg(S[3][1]) (deg.),          |S[4][1]| (dB),     arg(S[4][1]) (deg.)
 2.000000000e+00,        -1.223142966e+01,        -1.183782657e+02,        -2.694656568e-01,        -2.793626383e+01,        -5.407833733e+01,        +5.863795349e+01,        -6.019634069e+01,        +3.685079624e+01
 2.100000000e+00,        -1.185960609e+01,        -1.197367928e+02,        -2.943281350e-01,        -2.927344239e+01,        -5.371900997e+01,        +5.702219116e+01,        -5.978715130e+01,        +3.403741341e+01
 2.200000000e+00,        -1.150955314e+01,        -1.210876274e+02,        -3.199042928e-01,        -3.060289944e+01,        -5.338975462e+01,        +5.544075937e+01,        -5.941458283e+01,        +3.124675122e+01
 2.300000000e+00,        -1.117946319e+01,        -1.224306235e+02,        -3.461354170e-01,        -3.192447529e+01,        -5.308695947e+01,        +5.389737117e+01,        -5.907382313e+01,        +2.848836112e+01
 2.400000000e+00,        -1.086775259e+01,        -1.237656557e+02,        -3.729623763e-01,        -3.323803127e+01,        -5.280747642e+01,        +5.239350050e+01,        -5.876065412e+01,        +2.576775689e+01
 2.500000000e+00,        -1.057302526e+01,        -1.250926194e+02,        -4.003258051e-01,        -3.454344942e+01,        -5.254858818e+01,        +5.092895346e+01,        -5.847140927e+01,        +2.308736574e+01
 2.600000000e+00,        -1.029404340e+01,        -1.264114297e+02,        -4.281662791e-01,        -3.584063212e+01,        -5.230797311e+01,        +4.950235679e+01,        -5.820293139e+01,        +2.044730366e+01
 2.700000000e+00,        -1.002970381e+01,        -1.277220220e+02,        -4.564244824e-01,        -3.712950165e+01,        -5.208366758e+01,        +4.811157096e+01,        -5.795253019e+01,        +1.784601691e+01
 2.800000000e+00,        -9.779018555e+00,        -1.290243504e+02,        -4.850413636e-01,        -3.840999968e+01,        -5.187402662e+01,        +4.675403192e+01,        -5.771793900e+01,        +1.528081533e+01
 2.900000000e+00,        -9.541098952e+00,        -1.303183880e+02,        -5.139582837e-01,        -3.968208674e+01,        -5.167768355e+01,        +4.542702470e+01,        -5.749727050e+01,        +1.274831230e+01
 3.000000000e+00,        -9.315142385e+00,        -1.316041259e+02,        -5.431171523e-01,        -4.094574163e+01,        -5.149350981e+01,        +4.412789276e+01,        -5.728897185e+01,        +1.024478092e+01
 3.100000000e+00,        -9.100421246e+00,        -1.328815727e+02,        -5.724605548e-01,        -4.220096080e+01,        -5.132057606e+01,        +4.285418807e+01,        -5.709177991e+01,        +7.766433319e+00
 3.200000000e+00,        -8.896273655e+00,        -1.341507538e+02,        -6.019318685e-01,        -4.344775767e+01,        -5.115811576e+01,        +4.160376873e+01,        -5.690467767e+01,        +5.309630005e+00
 3.300000000e+00,        -8.702095617e+00,        -1.354117111e+02,        -6.314753695e-01,        -4.468616202e+01,        -5.100549204e+01,        +4.037485184e+01,        -5.672685276e+01,        +2.871026468e+00
 3.400000000e+00,        -8.517334358e+00,        -1.366645018e+02,        -6.610363288e-01,        -4.591621921e+01,        -5.086216853e+01,        +3.916603027e+01,        -5.655765919e+01,        +4.476655677e-01
 3.500000000e+00,        -8.341482630e+00,        -1.379091979e+02,        -6.905610990e-01,        -4.713798955e+01,        -5.072768439e+01,        +3.797626186e+01,        -5.639658294e+01,        -1.962975266e+00
 3.600000000e+00,        -8.174073829e+00,        -1.391458859e+02,        -7.199971919e-01,        -4.835154754e+01,        -5.060163361e+01,        +3.680483904e+01,        -5.624321190e+01,        -4.362972686e+00
 3.700000000e+00,        -8.014677779e+00,        -1.403746654e+02,        -7.492933462e-01,        -4.955698119e+01,        -5.048364851e+01,        +3.565134612e+01,        -5.609721038e+01,        -6.753972914e+00
 3.800000000e+00,        -7.862897083e+00,        -1.415956492e+02,        -7.783995871e-01,        -5.075439128e+01,        -5.037338685e+01,        +3.451560995e+01,        -5.595829810e+01,        -9.137225859e+00
 3.900000000e+00,        -7.718363949e+00,        -1.428089620e+02,        -8.072672772e-01,        -5.194389067e+01,        -5.027052228e+01,        +3.339764873e+01,        -5.582623335e+01,        -1.151363079e+01
 4.000000000e+00,        -7.580737420e+00,        -1.440147402e+02,        -8.358491599e-01,        -5.312560362e+01,        -5.017473757e+01,        +3.229762239e+01,        -5.570079994e+01,        -1.388378782e+01
 4.100000000e+00,        -7.449700942e+00,        -1.452131307e+02,        -8.640993949e-01,        -5.429966508e+01,        -5.008572007e+01,        +3.121578665e+01,        -5.558179746e+01,        -1.624805068e+01
 4.200000000e+00,        -7.324960230e+00,        -1.464042909e+02,        -8.919735874e-01,        -5.546622004e+01,        -5.000315896e+01,        +3.015245235e+01,        -5.546903424e+01,        -1.860657773e+01
 4.300000000e+00,        -7.206241379e+00,        -1.475883876e+02,        -9.194288101e-01,        -5.662542291e+01,        -4.992674393e+01,        +2.910795051e+01,        -5.536232265e+01,        -2.095937894e+01
 4.400000000e+00,        -7.093289195e+00,        -1.487655968e+02,        -9.464236201e-01,        -5.777743684e+01,        -4.985616476e+01,        +2.808260344e+01,        -5.526147604e+01,        -2.330635757e+01
 4.500000000e+00,        -6.985865709e+00,        -1.499361026e+02,        -9.729180698e-01,        -5.892243316e+01,        -4.979111165e+01,        +2.707670148e+01,        -5.516630714e+01,        -2.564734623e+01
 4.600000000e+00,        -6.883748858e+00,        -1.511000972e+02,        -9.988737133e-01,        -6.006059079e+01,        -4.973127604e+01,        +2.609048495e+01,        -5.507662740e+01,        -2.798213687e+01
 4.700000000e+00,        -6.786731298e+00,        -1.522577801e+02,        -1.024253608e+00,        -6.119209568e+01,        -4.967635165e+01,        +2.512413076e+01,        -5.499224701e+01,        -3.031050534e+01
 4.800000000e+00,        -6.694619352e+00,        -1.534093576e+02,        -1.049022312e+00,        -6.231714029e+01,        -4.962603569e+01,        +2.417774301e+01,        -5.491297541e+01,        -3.263223071e+01
 4.900000000e+00,        -6.607232056e+00,        -1.545550425e+02,        -1.073145879e+00,        -6.343592306e+01,        -4.958003007e+01,        +2.325134687e+01,        -5.483862212e+01,        -3.494711017e+01
 5.000000000e+00,        -6.524400304e+00,        -1.556950532e+02,        -1.096591851e+00,        -6.454864797e+01,        -4.953804264e+01,        +2.234488520e+01,        -5.476899763e+01,        -3.725496990e+01
 5.100000000e+00,        -6.445966077e+00,        -1.568296140e+02,        -1.119329241e+00,        -6.565552405e+01,        -4.949978831e+01,        +2.145821743e+01,        -5.470391444e+01,        -3.955567281e+01
 5.200000000e+00,        -6.371781748e+00,        -1.579589540e+02,        -1.141328528e+00,        -6.675676500e+01,        -4.946499005e+01,        +2.059112010e+01,        -5.464318797e+01,        -4.184912346e+01
 5.300000000e+00,        -6.301709447e+00,        -1.590833074e+02,        -1.162561635e+00,        -6.785258873e+01,        -4.943337987e+01,        +1.974328875e+01,        -5.458663754e+01,        -4.413527093e+01
 5.400000000e+00,        -6.235620495e+00,        -1.602029124e+02,        -1.183001912e+00,        -6.894321702e+01,        -4.940469956e+01,        +1.891434082e+01,        -5.453408715e+01,        -4.641410990e+01
 5.500000000e+00,        -6.173394882e+00,        -1.613180115e+02,        -1.202624121e+00,        -7.002887518e+01,        -4.937870137e+01,        +1.810381926e+01,        -5.448536621e+01,        -4.868568047e+01
 5.600000000e+00,        -6.114920796e+00,        -1.624288512e+02,        -1.221404416e+00,        -7.110979168e+01,        -4.935514864e+01,        +1.731119667e+01,        -5.444031016e+01,        -5.095006698e+01
 5.700000000e+00,        -6.060094197e+00,        -1.635356811e+02,        -1.239320319e+00,        -7.218619788e+01,        -4.933381623e+01,        +1.653587978e+01,        -5.439876094e+01,        -5.320739617e+01
 5.800000000e+00,        -6.008818428e+00,        -1.646387546e+02,        -1.256350706e+00,        -7.325832771e+01,        -4.931449090e+01,        +1.577721414e+01,        -5.436056743e+01,        -5.545783476e+01
 5.900000000e+00,        -5.961003858e+00,        -1.657383277e+02,        -1.272475780e+00,        -7.432641746e+01,        -4.929697166e+01,        +1.503448895e+01,        -5.432558575e+01,        -5.770158689e+01
 6.000000000e+00,        -5.916567563e+00,        -1.668346597e+02,        -1.287677057e+00,        -7.539070547e+01,        -4.928106995e+01,        +1.430694186e+01,        -5.429367947e+01,        -5.993889118e+01
 6.100000000e+00,        -5.875433034e+00,        -1.679280124e+02,        -1.301937340e+00,        -7.645143195e+01,        -4.926660982e+01,        +1.359376388e+01,        -5.426471979e+01,        -6.217001795e+01
 6.200000000e+00,        -5.837529913e+00,        -1.690186501e+02,        -1.315240705e+00,        -7.750883877e+01,        -4.925342808e+01,        +1.289410411e+01,        -5.423858561e+01,        -6.439526625e+01
 6.300000000e+00,        -5.802793749e+00,        -1.701068398e+02,        -1.327572477e+00,        -7.856316922e+01,        -4.924137433e+01,        +1.220707450e+01,        -5.421516363e+01,        -6.661496115e+01
 6.400000000e+00,        -5.771165787e+00,        -1.711928505e+02,        -1.338919215e+00,        -7.961466792e+01,        -4.923031100e+01,        +1.153175443e+01,        -5.419434825e+01,        -6.882945099e+01
 6.500000000e+00,        -5.742592770e+00,        -1.722769536e+02,        -1.349268695e+00,        -8.066358055e+01,        -4.922011332e+01,        +1.086719521e+01,        -5.417604163e+01,        -7.103910489e+01
 6.600000000e+00,        -5.717026763e+00,        -1.733594226e+02,        -1.358609891e+00,        -8.171015380e+01,        -4.921066929e+01,        +1.021242450e+01,        -5.416015359e+01,        -7.324431038e+01
 6.700000000e+00,        -5.694425000e+00,        -1.744405330e+02,        -1.366932963e+00,        -8.275463518e+01,        -4.920187958e+01,        +9.566450526e+00,        -5.414660151e+01,        -7.544547115e+01
 6.800000000e+00,        -5.674749744e+00,        -1.755205625e+02,        -1.374229239e+00,        -8.379727288e+01,        -4.919365744e+01,        +8.928266214e+00,        -5.413531028e+01,        -7.764300509e+01
 6.900000000e+00,        -5.657968168e+00,        -1.765997907e+02,        -1.380491209e+00,        -8.483831568e+01,        -4.918592856e+01,        +8.296853179e+00,        -5.412621213e+01,        -7.983734240e+01
 7.000000000e+00,        -5.644052247e+00,        -1.776784989e+02,        -1.385712508e+00,        -8.587801286e+01,        -4.917863091e+01,        +7.671185556e+00,        -5.411924659e+01,        -8.202892391e+01
 7.100000000e+00,        -5.632978673e+00,        -1.787569709e+02,        -1.389887907e+00,        -8.691661403e+01,        -4.917171456e+01,        +7.050233686e+00,        -5.411436031e+01,        -8.421819956e+01
 7.200000000e+00,        -5.624728776e+00,        -1.798354920e+02,        -1.393013310e+00,        -8.795436910e+01,        -4.916514151e+01,        +6.432967661e+00,        -5.411150698e+01,        -8.640562701e+01
 7.300000000e+00,        -5.619288466e+00,        +1.790856502e+02,        -1.395085740e+00,        -8.899152815e+01,        -4.915888543e+01,        +5.818360690e+00,        -5.411064720e+01,        -8.859167045e+01
 7.400000000e+00,        -5.616648190e+00,        +1.780061662e+02,        -1.396103338e+00,        -9.002834135e+01,        -4.915293148e+01,        +5.205392322e+00,        -5.411174839e+01,        -9.077679946e+01
 7.500000000e+00,        -5.616802895e+00,        +1.769257644e+02,        -1.396065360e+00,        -9.106505890e+01,        -4.914727604e+01,        +4.593051481e+00,        -5.411478471e+01,        -9.296148807e+01
 7.600000000e+00,        -5.619752010e+00,        +1.758441510e+02,        -1.394972173e+00,        -9.210193088e+01,        -4.914192647e+01,        +3.980339346e+00,        -5.411973690e+01,        -9.514621387e+01
 7.700000000e+00,        -5.625499443e+00,        +1.747610302e+02,        -1.392825256e+00,        -9.313920725e+01,        -4.913690084e+01,        +3.366272039e+00,        -5.412659229e+01,        -9.733145725e+01
 7.800000000e+00,        -5.634053590e+00,        +1.736761036e+02,        -1.389627200e+00,        -9.417713771e+01,        -4.913222769e+01,        +2.749883143e+00,        -5.413534465e+01,        -9.951770076e+01
 7.900000000e+00,        -5.645427352e+00,        +1.725890706e+02,        -1.385381713e+00,        -9.521597162e+01,        -4.912794572e+01,        +2.130226040e+00,        -5.414599419e+01,        -1.017054285e+02
 8.000000000e+00,        -5.659638172e+00,        +1.714996282e+02,        -1.380093620e+00,        -9.625595793e+01,        -4.912410357e+01,        +1.506376064e+00,        -5.415854750e+01,        -1.038951257e+02
 8.100000000e+00,        -5.676708087e+00,        +1.704074704e+02,        -1.373768875e+00,        -9.729734506e+01,        -4.912075950e+01,        +8.774324726e-01,        -5.417301748e+01,        -1.060872780e+02
 8.200000000e+00,        -5.696663783e+00,        +1.693122889e+02,        -1.366414563e+00,        -9.834038084e+01,        -4.911798117e+01,        +2.425202533e-01,        -5.418942338e+01,        -1.082823716e+02
 8.300000000e+00,        -5.719536680e+00,        +1.682137722e+02,        -1.358038913e+00,        -9.938531236e+01,        -4.911584536e+01,        -3.992082547e-01,        -5.420779076e+01,        -1.104808922e+02
 8.400000000e+00,        -5.745363018e+00,        +1.671116060e+02,        -1.348651305e+00,        -1.004323859e+02,        -4.911443776e+01,        -1.048571896e+00,        -5.422815151e+01,        -1.126833256e+02
 8.500000000e+00,        -5.774183966e+00,        +1.660054724e+02,        -1.338262281e+00,        -1.014818467e+02,        -4.911385269e+01,        -1.706359395e+00,        -5.425054386e+01,        -1.148901567e+02
 8.600000000e+00,        -5.806045744e+00,        +1.648950504e+02,        -1.326883564e+00,        -1.025339390e+02,        -4.911419294e+01,        -2.373328197e+00,        -5.427501244e+01,        -1.171018697e+02
 8.700000000e+00,        -5.840999763e+00,        +1.637800151e+02,        -1.314528063e+00,        -1.035889059e+02,        -4.911556954e+01,        -3.050203449e+00,        -5.430160834e+01,        -1.193189479e+02
 8.800000000e+00,        -5.879102783e+00,        +1.626600378e+02,        -1.301209895e+00,        -1.046469890e+02,        -4.911810159e+01,        -3.737677100e+00,        -5.433038912e+01,        -1.215418737e+02
 8.900000000e+00,        -5.920417083e+00,        +1.615347857e+02,        -1.286944397e+00,        -1.057084282e+02,        -4.912191615e+01,        -4.436407111e+00,        -5.436141900e+01,        -1.237711280e+02
 9.000000000e+00,        -5.965010667e+00,        +1.604039213e+02,        -1.271748144e+00,        -1.067734620e+02,        -4.912714809e+01,        -5.147016759e+00,        -5.439476887e+01,        -1.260071908e+02
 9.100000000e+00,        -6.012957467e+00,        +1.592671024e+02,        -1.255638966e+00,        -1.078423268e+02,        -4.913394000e+01,        -5.870094016e+00,        -5.443051644e+01,        -1.282505408e+02
 9.200000000e+00,        -6.064337594e+00,        +1.581239818e+02,        -1.238635967e+00,        -1.089152568e+02,        -4.914244215e+01,        -6.606190980e+00,        -5.446874643e+01,        -1.305016554e+02
 9.300000000e+00,        -6.119237594e+00,        +1.569742063e+02,        -1.220759541e+00,        -1.099924839e+02,        -4.915281248e+01,        -7.355823356e+00,        -5.450955064e+01,        -1.327610109e+02
 9.400000000e+00,        -6.177750739e+00,        +1.558174171e+02,        -1.202031393e+00,        -1.110742375e+02,        -4.916521659e+01,        -8.119469937e+00,        -5.455302819e+01,        -1.350290823e+02
 9.500000000e+00,        -6.239977348e+00,        +1.546532484e+02,        -1.182474553e+00,        -1.121607439e+02,        -4.917982780e+01,        -8.897572098e+00,        -5.459928570e+01,        -1.373063435e+02
 9.600000000e+00,        -6.306025131e+00,        +1.534813274e+02,        -1.162113399e+00,        -1.132522264e+02,        -4.919682727e+01,        -9.690533245e+00,        -5.464843752e+01,        -1.395932674e+02
 9.700000000e+00,        -6.376009578e+00,        +1.523012734e+02,        -1.140973671e+00,        -1.143489047e+02,        -4.921640416e+01,        -1.049871823e+01,        -5.470060593e+01,        -1.418903262e+02
 9.800000000e+00,        -6.450054375e+00,        +1.511126972e+02,        -1.119082489e+00,        -1.154509948e+02,        -4.923875576e+01,        -1.132245266e+01,        -5.475592147e+01,        -1.441979911e+02
 9.900000000e+00,        -6.528291869e+00,        +1.499152000e+02,        -1.096468368e+00,        -1.165587084e+02,        -4.926408779e+01,        -1.216202215e+01,        -5.481452319e+01,        -1.465167333e+02
 1.000000000e+01,        -6.610863571e+00,        +1.487083724e+02,        -1.073161230e+00,        -1.176722527e+02,        -4.929261469e+01,        -1.301767139e+01,        -5.487655895e+01,        -1.488470234e+02
 1.010000000e+01,        -6.697920720e+00,        +1.474917934e+02,        -1.049192422e+00,        -1.187918300e+02,        -4.932455993e+01,        -1.388960308e+01,        -5.494218583e+01,        -1.511893326e+02
 1.020000000e+01,        -6.789624889e+00,        +1.462650294e+02,        -1.024594720e+00,        -1.199176373e+02,        -4.936015647e+01,        -1.477797667e+01,        -5.501157045e+01,        -1.535441324e+02
 1.030000000e+01,        -6.886148667e+00,        +1.450276318e+02,        -9.994023396e-01,        -1.210498655e+02,        -4.939964723e+01,        -1.568290686e+01,        -5.508488940e+01,        -1.559118959e+02
 1.040000000e+01,        -6.987676404e+00,        +1.437791363e+02,        -9.736509414e-01,        -1.221886994e+02,        -4.944328561e+01,        -1.660446181e+01,        -5.516232970e+01,        -1.582930977e+02
 1.050000000e+01,        -7.094405034e+00,        +1.425190601e+02,        -9.473776318e-01,        -1.233343171e+02,        -4.949133612e+01,        -1.754266110e+01,        -5.524408928e+01,        -1.606882153e+02
 1.060000000e+01,        -7.206544991e+00,        +1.412469000e+02,        -9.206209614e-01,        -1.244868892e+02,        -4.954407508e+01,        -1.849747326e+01,        -5.533037749e+01,        -1.630977297e+02
 1.070000000e+01,        -7.324321224e+00,        +1.399621297e+02,        -8.934209188e-01,        -1.256465785e+02,        -4.960179141e+01,        -1.946881292e+01,        -5.542141568e+01,        -1.655221269e+02
 1.080000000e+01,        -7.447974323e+00,        +1.386641963e+02,        -8.658189197e-01,        -1.268135394e+02,        -4.966478746e+01,        -2.045653751e+01,        -5.551743786e+01,        -1.679618990e+02
 1.090000000e+01,        -7.577761779e+00,        +1.373525172e+02,        -8.378577918e-01,        -1.279879172e+02,        -4.973338004e+01,        -2.146044337e+01,        -5.561869132e+01,        -1.704175464e+02
 1.100000000e+01,        -7.713959388e+00,        +1.360264752e+02,        -8.095817529e-01,        -1.291698476e+02,        -4.980790147e+01,        -2.248026129e+01,        -5.572543741e+01,        -1.728895793e+02
