         f (GHz),          |S[1][1]| (dB),     arg(S[1][1]) (deg.),          |S[2][1]| (dB),     arg(S[2][1]) (deg.),          |S[3][1]| (dB),     arg(S[3][1]) (deg.),          |S[4][1]| (dB),     arg(S[4][1]) (deg.)
 2.000000000e+00,        -1.680937388e+01,        -1.149325529e+02,        -9.304060132e-02,        -2.475772502e+01,        -5.271320305e+01,        +6.308287718e+01,        -6.260834687e+01,        +4.077057781e+01
 2.100000000e+00,        -1.642044631e+01,        -1.161580903e+02,        -1.018111655e-01,        -2.597664396e+01,        -5.232849501e+01,        +6.174992620e+01,        -6.220463701e+01,        +3.829664329e+01
 2.200000000e+00,        -1.605280190e+01,        -1.173809820e+02,        -1.108692915e-01,        -2.719302636e+01,        -5.196696477e+01,        +6.042669696e+01,        -6.182846341e+01,        +3.583039864e+01
 2.300000000e+00,        -1.570467369e+01,        -1.186011684e+02,        -1.201976046e-01,        -2.840680076e+01,        -5.162639435e+01,        +5.911406023e+01,        -6.147680322e+01,        +3.337644062e+01
 2.400000000e+00,        -1.537451876e+01,        -1.198185950e+02,        -1.297783688e-01,        -2.961790102e+01,        -5.130485148e+01,        +5.781233138e+01,        -6.114699917e+01,        +3.093757258e+01
 2.500000000e+00,        -1.506098168e+01,        -1.210332125e+02,        -1.395935249e-01,        -3.082626641e+01,        -5.100065325e+01,        +5.652142058e+01,        -6.083672569e+01,        +2.851522617e+01
 2.600000000e+00,        -1.476286513e+01,        -1.222449763e+02,        -1.496247287e-01,        -3.203184164e+01,        -5.071233406e+01,        +5.524095689e+01,        -6.054395620e+01,        +2.610980469e+01
 2.700000000e+00,        -1.447910601e+01,        -1.234538473e+02,        -1.598533889e-01,        -3.323457687e+01,        -5.043861731e+01,        +5.397038886e+01,        -6.026693185e+01,        +2.372096189e+01
 2.800000000e+00,        -1.420875602e+01,        -1.246597913e+02,        -1.702607051e-01,        -3.443442777e+01,        -5.017839022e+01,        +5.270906418e+01,        -6.000413206e+01,        +2.134782675e+01
 2.900000000e+00,        -1.395096554e+01,        -1.258627795e+02,        -1.808277050e-01,        -3.563135550e+01,        -4.993068148e+01,        +5.145629091e+01,        -5.975424677e+01,        +1.898918309e+01
 3.000000000e+00,        -1.370497033e+01,        -1.270627879e+02,        -1.915352819e-01,        -3.682532670e+01,        -4.969464154e+01,        +5.021138312e+01,        -5.951615070e+01,        +1.664361100e+01
 3.100000000e+00,        -1.347008039e+01,        -1.282597980e+02,        -2.023642311e-01,        -3.801631350e+01,        -4.946952515e+01,        +4.897369328e+01,        -5.928887966e+01,        +1.430959633e+01
 3.200000000e+00,        -1.324567058e+01,        -1.294537961e+02,        -2.132952858e-01,        -3.920429348e+01,        -4.925467613e+01,        +4.774263383e+01,        -5.907160884e+01,        +1.198561339e+01
 3.300000000e+00,        -1.303117272e+01,        -1.306447739e+02,        -2.243091530e-01,        -4.038924964e+01,        -4.904951410e+01,        +4.651769007e+01,        -5.886363325e+01,        +9.670185402e+00
 3.400000000e+00,        -1.282606887e+01,        -1.318327280e+02,        -2.353865477e-01,        -4.157117035e+01,        -4.885352297e+01,        +4.529842616e+01,        -5.866435013e+01,        +7.361926725e+00
 3.500000000e+00,        -1.262988555e+01,        -1.330176602e+02,        -2.465082266e-01,        -4.275004930e+01,        -4.866624109e+01,        +4.408448607e+01,        -5.847324338e+01,        +5.059570302e+00
 3.600000000e+00,        -1.244218884e+01,        -1.341995771e+02,        -2.576550218e-01,        -4.392588541e+01,        -4.848725282e+01,        +4.287559061e+01,        -5.828986985e+01,        +2.761983409e+00
 3.700000000e+00,        -1.226258009e+01,        -1.353784904e+02,        -2.688078719e-01,        -4.509868283e+01,        -4.831618137e+01,        +4.167153189e+01,        -5.811384742e+01,        +4.681742876e-01
 3.800000000e+00,        -1.209069231e+01,        -1.365544165e+02,        -2.799478536e-01,        -4.626845075e+01,        -4.815268283e+01,        +4.047216608e+01,        -5.794484471e+01,        -1.822708112e+00
 3.900000000e+00,        -1.192618688e+01,        -1.377273770e+02,        -2.910562116e-01,        -4.743520341e+01,        -4.799644109e+01,        +3.927740516e+01,        -5.778257231e+01,        -4.111379401e+00
 4.000000000e+00,        -1.176875084e+01,        -1.388973978e+02,        -3.021143872e-01,        -4.859895996e+01,        -4.784716367e+01,        +3.808720827e+01,        -5.762677533e+01,        -6.398428516e+00
 4.100000000e+00,        -1.161809440e+01,        -1.400645097e+02,        -3.131040466e-01,        -4.975974435e+01,        -4.770457825e+01,        +3.690157312e+01,        -5.747722719e+01,        -8.684328729e+00
 4.200000000e+00,        -1.147394885e+01,        -1.412287481e+02,        -3.240071071e-01,        -5.091758525e+01,        -4.756842984e+01,        +3.572052770e+01,        -5.733372443e+01,        -1.096944993e+01
 4.300000000e+00,        -1.133606461e+01,        -1.423901528e+02,        -3.348057627e-01,        -5.207251591e+01,        -4.743847844e+01,        +3.454412249e+01,        -5.719608246e+01,        -1.325407143e+01
 4.400000000e+00,        -1.120420960e+01,        -1.435487679e+02,        -3.454825089e-01,        -5.322457407e+01,        -4.731449712e+01,        +3.337242337e+01,        -5.706413209e+01,        -1.553839471e+01
 4.500000000e+00,        -1.107816780e+01,        -1.447046420e+02,        -3.560201650e-01,        -5.437380182e+01,        -4.719627053e+01,        +3.220550525e+01,        -5.693771675e+01,        -1.782255570e+01
 4.600000000e+00,        -1.095773785e+01,        -1.458578277e+02,        -3.664018971e-01,        -5.552024546e+01,        -4.708359363e+01,        +3.104344645e+01,        -5.681669026e+01,        -2.010663639e+01
 4.700000000e+00,        -1.084273199e+01,        -1.470083817e+02,        -3.766112383e-01,        -5.666395541e+01,        -4.697627072e+01,        +2.988632380e+01,        -5.670091503e+01,        -2.239067542e+01
 4.800000000e+00,        -1.073297495e+01,        -1.481563649e+02,        -3.866321085e-01,        -5.780498605e+01,        -4.687411461e+01,        +2.873420852e+01,        -5.659026078e+01,        -2.467467782e+01
 4.900000000e+00,        -1.062830303e+01,        -1.493018417e+02,        -3.964488333e-01,        -5.894339559e+01,        -4.677694602e+01,        +2.758716272e+01,        -5.648460340e+01,        -2.695862353e+01
 5.000000000e+00,        -1.052856331e+01,        -1.504448804e+02,        -4.060461612e-01,        -6.007924593e+01,        -4.668459309e+01,        +2.644523653e+01,        -5.638382424e+01,        -2.924247507e+01
 5.100000000e+00,        -1.043361286e+01,        -1.515855529e+02,        -4.154092801e-01,        -6.121260254e+01,        -4.659689092e+01,        +2.530846580e+01,        -5.628780945e+01,        -3.152618405e+01
 5.200000000e+00,        -1.034331808e+01,        -1.527239346e+02,        -4.245238326e-01,        -6.234353431e+01,        -4.651368130e+01,        +2.417687028e+01,        -5.619644966e+01,        -3.380969690e+01
 5.300000000e+00,        -1.025755412e+01,        -1.538601043e+02,        -4.333759306e-01,        -6.347211340e+01,        -4.643481247e+01,        +2.305045229e+01,        -5.610963958e+01,        -3.609295961e+01
 5.400000000e+00,        -1.017620431e+01,        -1.549941439e+02,        -4.419521684e-01,        -6.459841513e+01,        -4.636013885e+01,        +2.192919566e+01,        -5.602727793e+01,        -3.837592176e+01
 5.500000000e+00,        -1.009915968e+01,        -1.561261387e+02,        -4.502396352e-01,        -6.572251780e+01,        -4.628952097e+01,        +2.081306517e+01,        -5.594926724e+01,        -4.065853987e+01
 5.600000000e+00,        -1.002631851e+01,        -1.572561768e+02,        -4.582259266e-01,        -6.684450259e+01,        -4.622282525e+01,        +1.970200609e+01,        -5.587551382e+01,        -4.294078003e+01
 5.700000000e+00,        -9.957585942e+00,        -1.583843493e+02,        -4.658991556e-01,        -6.796445339e+01,        -4.615992395e+01,        +1.859594412e+01,        -5.580592779e+01,        -4.522262013e+01
 5.800000000e+00,        -9.892873617e+00,        -1.595107499e+02,        -4.732479619e-01,        -6.908245668e+01,        -4.610069507e+01,        +1.749478542e+01,        -5.574042305e+01,        -4.750405149e+01
 5.900000000e+00,        -9.832099334e+00,        -1.606354753e+02,        -4.802615214e-01,        -7.019860139e+01,        -4.604502227e+01,        +1.639841686e+01,        -5.567891733e+01,        -4.978508017e+01
 6.000000000e+00,        -9.775186764e+00,        -1.617586245e+02,        -4.869295543e-01,        -7.131297876e+01,        -4.599279480e+01,        +1.530670637e+01,        -5.562133228e+01,        -5.206572789e+01
 6.100000000e+00,        -9.722065180e+00,        -1.628802989e+02,        -4.932423327e-01,        -7.242568218e+01,        -4.594390745e+01,        +1.421950347e+01,        -5.556759349e+01,        -5.434603273e+01
 6.200000000e+00,        -9.672669216e+00,        -1.640006024e+02,        -4.991906877e-01,        -7.353680710e+01,        -4.589826050e+01,        +1.313663980e+01,        -5.551763058e+01,        -5.662604948e+01
 6.300000000e+00,        -9.626938646e+00,        -1.651196410e+02,        -5.047660158e-01,        -7.464645087e+01,        -4.585575968e+01,        +1.205792977e+01,        -5.547137725e+01,        -5.890584989e+01
 6.400000000e+00,        -9.584818188e+00,        -1.662375227e+02,        -5.099602842e-01,        -7.575471261e+01,        -4.581631611e+01,        +1.098317125e+01,        -5.542877138e+01,        -6.118552272e+01
 6.500000000e+00,        -9.546257328e+00,        -1.673543577e+02,        -5.147660367e-01,        -7.686169306e+01,        -4.577984629e+01,        +9.912146290e+00,        -5.538975508e+01,        -6.346517367e+01
 6.600000000e+00,        -9.511210161e+00,        -1.684702580e+02,        -5.191763976e-01,        -7.796749450e+01,        -4.574627205e+01,        +8.844621913e+00,        -5.535427474e+01,        -6.574492522e+01
 6.700000000e+00,        -9.479635248e+00,        -1.695853374e+02,        -5.231850766e-01,        -7.907222057e+01,        -4.571552050e+01,        +7.780350835e+00,        -5.532228114e+01,        -6.802491635e+01
 6.800000000e+00,        -9.451495489e+00,        -1.706997113e+02,        -5.267863719e-01,        -8.017597614e+01,        -4.568752403e+01,        +6.719072276e+00,        -5.529372946e+01,        -7.030530228e+01
 6.900000000e+00,        -9.426758015e+00,        -1.718134968e+02,        -5.299751740e-01,        -8.127886725e+01,        -4.566222028e+01,        +5.660512736e+00,        -5.526857936e+01,        -7.258625412e+01
 7.000000000e+00,        -9.405394091e+00,        -1.729268126e+02,        -5.327469684e-01,        -8.238100090e+01,        -4.563955208e+01,        +4.604386769e+00,        -5.524679506e+01,        -7.486795849e+01
 7.100000000e+00,        -9.387379027e+00,        -1.740397786e+02,        -5.350978380e-01,        -8.348248496e+01,        -4.561946746e+01,        +3.550397757e+00,        -5.522834536e+01,        -7.715061719e+01
 7.200000000e+00,        -9.372692114e+00,        -1.751525162e+02,        -5.370244658e-01,        -8.458342808e+01,        -4.560191964e+01,        +2.498238669e+00,        -5.521320373e+01,        -7.943444681e+01
 7.300000000e+00,        -9.361316558e+00,        -1.762651480e+02,        -5.385241358e-01,        -8.568393949e+01,        -4.558686698e+01,        +1.447592803e+00,        -5.520134836e+01,        -8.171967837e+01
 7.400000000e+00,        -9.353239436e+00,        -1.773777976e+02,        -5.395947355e-01,        -8.678412895e+01,        -4.557427296e+01,        +3.981345166e-01,        -5.519276221e+01,        -8.400655702e+01
 7.500000000e+00,        -9.348451660e+00,        -1.784905900e+02,        -5.402347563e-01,        -8.788410659e+01,        -4.556410623e+01,        -6.504700648e-01,        -5.518743309e+01,        -8.629534170e+01
 7.600000000e+00,        -9.346947948e+00,        -1.796036511e+02,        -5.404432950e-01,        -8.898398278e+01,        -4.555634055e+01,        -1.698562359e+00,        -5.518535373e+01,        -8.858630485e+01
 7.700000000e+00,        -9.348726811e+00,        +1.792828925e+02,        -5.402200539e-01,        -9.008386804e+01,        -4.555095478e+01,        -2.746490657e+00,        -5.518652183e+01,        -9.087973222e+01
 7.800000000e+00,        -9.353790553e+00,        +1.781689129e+02,        -5.395653414e-01,        -9.118387288e+01,        -4.554793295e+01,        -3.794609474e+00,        -5.519094020e+01,        -9.317592260e+01
 7.900000000e+00,        -9.362145268e+00,        +1.770542815e+02,        -5.384800719e-01,        -9.228410771e+01,        -4.554726420e+01,        -4.843278926e+00,        -5.519861675e+01,        -9.547518771e+01
 8.000000000e+00,        -9.373800868e+00,        +1.759388692e+02,        -5.369657654e-01,        -9.338468271e+01,        -4.554894281e+01,        -5.892864126e+00,        -5.520956469e+01,        -9.777785206e+01
 8.100000000e+00,        -9.388771102e+00,        +1.748225458e+02,        -5.350245473e-01,        -9.448570769e+01,        -4.555296824e+01,        -6.943734602e+00,        -5.522380257e+01,        -1.000842529e+02
 8.200000000e+00,        -9.407073601e+00,        +1.737051806e+02,        -5.326591471e-01,        -9.558729198e+01,        -4.555934516e+01,        -7.996263736e+00,        -5.524135440e+01,        -1.023947402e+02
 8.300000000e+00,        -9.428729923e+00,        +1.725866421e+02,        -5.298728971e-01,        -9.668954431e+01,        -4.556808343e+01,        -9.050828235e+00,        -5.526224980e+01,        -1.047096767e+02
 8.400000000e+00,        -9.453765622e+00,        +1.714667985e+02,        -5.266697315e-01,        -9.779257267e+01,        -4.557919822e+01,        -1.010780761e+01,        -5.528652413e+01,        -1.070294381e+02
 8.500000000e+00,        -9.482210313e+00,        +1.703455170e+02,        -5.230541839e-01,        -9.889648420e+01,        -4.559270998e+01,        -1.116758369e+01,        -5.531421865e+01,        -1.093544131e+02
 8.600000000e+00,        -9.514097766e+00,        +1.692226645e+02,        -5.190313853e-01,        -1.000013851e+02,        -4.560864456e+01,        -1.223054014e+01,        -5.534538068e+01,        -1.116850037e+02
 8.700000000e+00,        -9.549466001e+00,        +1.680981072e+02,        -5.146070614e-01,        -1.011073803e+02,        -4.562703323e+01,        -1.329706204e+01,        -5.538006379e+01,        -1.140216255e+02
 8.800000000e+00,        -9.588357406e+00,        +1.669717107e+02,        -5.097875295e-01,        -1.022145737e+02,        -4.564791280e+01,        -1.436753543e+01,        -5.541832801e+01,        -1.163647082e+02
 8.900000000e+00,        -9.630818863e+00,        +1.658433401e+02,        -5.045796952e-01,        -1.033230678e+02,        -4.567132568e+01,        -1.544234692e+01,        -5.546024006e+01,        -1.187146958e+02
 9.000000000e+00,        -9.676901893e+00,        +1.647128597e+02,        -4.989910484e-01,        -1.044329634e+02,        -4.569731998e+01,        -1.652188329e+01,        -5.550587360e+01,        -1.210720477e+02
 9.100000000e+00,        -9.726662818e+00,        +1.635801333e+02,        -4.930296586e-01,        -1.055443599e+02,        -4.572594966e+01,        -1.760653113e+01,        -5.555530949e+01,        -1.234372387e+02
 9.200000000e+00,        -9.780162944e+00,        +1.624450238e+02,        -4.867041701e-01,        -1.066573549e+02,        -4.575727461e+01,        -1.869667651e+01,        -5.560863612e+01,        -1.258107602e+02
 9.300000000e+00,        -9.837468760e+00,        +1.613073935e+02,        -4.800237968e-01,        -1.077720439e+02,        -4.579136085e+01,        -1.979270462e+01,        -5.566594972e+01,        -1.281931210e+02
 9.400000000e+00,        -9.898652157e+00,        +1.601671033e+02,        -4.729983151e-01,        -1.088885205e+02,        -4.582828065e+01,        -2.089499945e+01,        -5.572735474e+01,        -1.305848483e+02
 9.500000000e+00,        -9.963790682e+00,        +1.590240137e+02,        -4.656380582e-01,        -1.100068763e+02,        -4.586811274e+01,        -2.200394352e+01,        -5.579296423e+01,        -1.329864889e+02
 9.600000000e+00,        -1.003296780e+01,        +1.578779834e+02,        -4.579539079e-01,        -1.111272003e+02,        -4.591094251e+01,        -2.311991758e+01,        -5.586290029e+01,        -1.353986103e+02
 9.700000000e+00,        -1.010627321e+01,        +1.567288702e+02,        -4.499572864e-01,        -1.122495793e+02,        -4.595686223e+01,        -2.424330031e+01,        -5.593729457e+01,        -1.378218027e+02
 9.800000000e+00,        -1.018380316e+01,        +1.555765298e+02,        -4.416601478e-01,        -1.133740971e+02,        -4.600597132e+01,        -2.537446808e+01,        -5.601628877e+01,        -1.402566801e+02
 9.900000000e+00,        -1.026566082e+01,        +1.544208166e+02,        -4.330749678e-01,        -1.145008353e+02,        -4.605837660e+01,        -2.651379466e+01,        -5.610003523e+01,        -1.427038826e+02
 1.000000000e+01,        -1.035195670e+01,        +1.532615823e+02,        -4.242147333e-01,        -1.156298723e+02,        -4.611419266e+01,        -2.766165099e+01,        -5.618869755e+01,        -1.451640784e+02
 1.010000000e+01,        -1.044280908e+01,        +1.520986764e+02,        -4.150929308e-01,        -1.167612835e+02,        -4.617354213e+01,        -2.881840490e+01,        -5.628245135e+01,        -1.476379663e+02
 1.020000000e+01,        -1.053834453e+01,        +1.509319454e+02,        -4.057235340e-01,        -1.178951411e+02,        -4.623655616e+01,        -2.998442083e+01,        -5.638148493e+01,        -1.501262788e+02
 1.030000000e+01,        -1.063869843e+01,        +1.497612324e+02,        -3.961209900e-01,        -1.190315142e+02,        -4.630337473e+01,        -3.116005959e+01,        -5.648600021e+01,        -1.526297848e+02
 1.040000000e+01,        -1.074401561e+01,        +1.485863764e+02,        -3.863002052e-01,        -1.201704683e+02,        -4.637414722e+01,        -3.234567803e+01,        -5.659621361e+01,        -1.551492934e+02
 1.050000000e+01,        -1.085445102e+01,        +1.474072119e+02,        -3.762765295e-01,        -1.213120653e+02,        -4.644903288e+01,        -3.354162877e+01,        -5.671235704e+01,        -1.576856582e+02
 1.060000000e+01,        -1.097017048e+01,        +1.462235679e+02,        -3.660657398e-01,        -1.224563634e+02,        -4.652820142e+01,        -3.474825982e+01,        -5.683467905e+01,        -1.602397819e+02
 1.070000000e+01,        -1.109135152e+01,        +1.450352672e+02,        -3.556840219e-01,        -1.236034169e+02,        -4.661183361e+01,        -3.596591424e+01,        -5.696344606e+01,        -1.628126219e+02
 1.080000000e+01,        -1.121818432e+01,        +1.438421253e+02,        -3.451479522e-01,        -1.247532761e+02,        -4.670012205e+01,        -3.719492969e+01,        -5.709894367e+01,        -1.654051963e+02
 1.090000000e+01,        -1.135087278e+01,        +1.426439493e+02,        -3.344744766e-01,        -1.259059873e+02,        -4.679327186e+01,        -3.843563801e+01,        -5.724147815e+01,        -1.680185914e+02
 1.100000000e+01,        -1.148963568e+01,        +1.414405362e+02,        -3.236808902e-01,        -1.270615922e+02,        -4.689150163e+01,        -3.968836465e+01,        -5.739137811e+01,        -1.706539702e+02
