        f (GHz),          Re{Φ_elec[1]} (C),          Im{Φ_elec[1]} (C),               Φ_pow[2] (W)
 2.00000000e+00,        +1.121175061339e-12,        -3.337982214141e-13,        +2.324482491540e-06
 2.10000000e+00,        +1.113114528060e-12,        -3.483260119074e-13,        +2.554388743384e-06
 2.20000000e+00,        +1.104771899255e-12,        -3.625751052455e-13,        +2.794133836329e-06
 2.30000000e+00,        +1.096159621929e-12,        -3.765394814666e-13,        +3.043438489350e-06
 2.40000000e+00,        +1.087290150094e-12,        -3.902137727681e-13,        +3.302018179807e-06
 2.50000000e+00,        +1.078175910131e-12,        -4.035932396418e-13,        +3.569590031627e-06
 2.60000000e+00,        +1.068829270498e-12,        -4.166737464146e-13,        +3.845878246838e-06
 2.70000000e+00,        +1.059262515247e-12,        -4.294517367843e-13,        +4.130618218350e-06
 2.80000000e+00,        +1.049487820818e-12,        -4.419242097445e-13,        +4.423559499156e-06
 2.90000000e+00,        +1.039517235596e-12,        -4.540886961351e-13,        +4.724467813065e-06
 3.00000000e+00,        +1.029362661798e-12,        -4.659432359357e-13,        +5.033126285216e-06
 3.10000000e+00,        +1.019035839297e-12,        -4.774863563367e-13,        +5.349336054530e-06
 3.20000000e+00,        +1.008548331075e-12,        -4.887170505641e-13,        +5.672916409773e-06
 3.30000000e+00,        +9.979115100565e-13,        -4.996347574012e-13,        +6.003704569333e-06
 3.40000000e+00,        +9.871365471257e-13,        -5.102393413308e-13,        +6.341555204029e-06
 3.50000000e+00,        +9.762344001769e-13,        -5.205310732151e-13,        +6.686339783281e-06
 3.60000000e+00,        +9.652158041008e-13,        -5.305106114350e-13,        +7.037945808326e-06
 3.70000000e+00,        +9.540912616279e-13,        -5.401789834159e-13,        +7.396275981886e-06
 3.80000000e+00,        +9.428710349804e-13,        -5.495375674802e-13,        +7.761247351877e-06
 3.90000000e+00,        +9.315651383026e-13,        -5.585880749784e-13,        +8.132790456855e-06
 4.00000000e+00,        +9.201833308528e-13,        -5.673325326638e-13,        +8.510848493175e-06
 4.10000000e+00,        +9.087351109461e-13,        -5.757732652901e-13,        +8.895376517426e-06
 4.20000000e+00,        +8.972297106455e-13,        -5.839128784195e-13,        +9.286340692927e-06
 4.30000000e+00,        +8.856760911977e-13,        -5.917542414424e-13,        +9.683717585217e-06
 4.40000000e+00,        +8.740829392114e-13,        -5.993004708152e-13,        +1.008749350867e-05
 4.50000000e+00,        +8.624586635747e-13,        -6.065549135327e-13,        +1.049766392422e-05
 4.60000000e+00,        +8.508113931038e-13,        -6.135211308543e-13,        +1.091423288671e-05
 4.70000000e+00,        +8.391489749129e-13,        -6.202028823083e-13,        +1.133721253921e-05
 4.80000000e+00,        +8.274789734919e-13,        -6.266041100007e-13,        +1.176662265120e-05
 4.90000000e+00,        +8.158086704724e-13,        -6.327289232570e-13,        +1.220249019665e-05
 5.00000000e+00,        +8.041450650626e-13,        -6.385815836240e-13,        +1.264484896843e-05
 5.10000000e+00,        +7.924948751231e-13,        -6.441664902599e-13,        +1.309373922470e-05
 5.20000000e+00,        +7.808645388587e-13,        -6.494881657394e-13,        +1.354920736370e-05
 5.30000000e+00,        +7.692602170914e-13,        -6.545512422969e-13,        +1.401130562282e-05
 5.40000000e+00,        +7.576877960851e-13,        -6.593604485304e-13,        +1.448009179862e-05
 5.50000000e+00,        +7.461528908831e-13,        -6.639205965870e-13,        +1.495562898405e-05
 5.60000000e+00,        +7.346608491253e-13,        -6.682365698437e-13,        +1.543798531988e-05
 5.70000000e+00,        +7.232167553050e-13,        -6.723133111008e-13,        +1.592723375734e-05
 5.80000000e+00,        +7.118254354283e-13,        -6.761558112958e-13,        +1.642345182897e-05
 5.90000000e+00,        +7.004914620385e-13,        -6.797690987473e-13,        +1.692672142546e-05
 6.00000000e+00,        +6.892191595663e-13,        -6.831582289333e-13,        +1.743712857581e-05
 6.10000000e+00,        +6.780126099695e-13,        -6.863282748061e-13,        +1.795476322886e-05
 6.20000000e+00,        +6.668756586241e-13,        -6.892843176435e-13,        +1.847971903401e-05
 6.30000000e+00,        +6.558119204332e-13,        -6.920314384335e-13,        +1.901209311941e-05
 6.40000000e+00,        +6.448247861171e-13,        -6.945747097865e-13,        +1.955198586589e-05
 6.50000000e+00,        +6.339174286531e-13,        -6.969191883694e-13,        +2.009950067499e-05
 6.60000000e+00,        +6.230928098323e-13,        -6.990699078499e-13,        +2.065474372967e-05
 6.70000000e+00,        +6.123536869053e-13,        -7.010318723436e-13,        +2.121782374635e-05
 6.80000000e+00,        +6.017026192855e-13,        -7.028100503474e-13,        +2.178885171704e-05
 6.90000000e+00,        +5.911419752869e-13,        -7.044093691496e-13,        +2.236794064029e-05
 7.00000000e+00,        +5.806739388695e-13,        -7.058347096989e-13,        +2.295520523993e-05
 7.10000000e+00,        +5.703005163698e-13,        -7.070909019188e-13,        +2.355076167067e-05
 7.20000000e+00,        +5.600235431956e-13,        -7.081827204489e-13,        +2.415472720942e-05
 7.30000000e+00,        +5.498446904656e-13,        -7.091148807983e-13,        +2.476721993166e-05
 7.40000000e+00,        +5.397654715757e-13,        -7.098920358920e-13,        +2.538835837198e-05
 7.50000000e+00,        +5.297872486758e-13,        -7.105187729932e-13,        +2.601826116811e-05
 7.60000000e+00,        +5.199112390441e-13,        -7.109996109831e-13,        +2.665704668787e-05
 7.70000000e+00,        +5.101385213434e-13,        -7.113389979812e-13,        +2.730483263845e-05
 7.80000000e+00,        +5.004700417507e-13,        -7.115413092867e-13,        +2.796173565770e-05
 7.90000000e+00,        +4.909066199480e-13,        -7.116108456240e-13,        +2.862787088713e-05
 8.00000000e+00,        +4.814489549672e-13,        -7.115518316739e-13,        +2.930335152639e-05
 8.10000000e+00,        +4.720976308800e-13,        -7.113684148750e-13,        +2.998828836937e-05
 8.20000000e+00,        +4.628531223286e-13,        -7.110646644743e-13,        +3.068278932202e-05
 8.30000000e+00,        +4.537157998901e-13,        -7.106445708153e-13,        +3.138695890220e-05
 8.40000000e+00,        +4.446859352723e-13,        -7.101120448428e-13,        +3.210089772224e-05
 8.50000000e+00,        +4.357637063359e-13,        -7.094709178114e-13,        +3.282470195493e-05
 8.60000000e+00,        +4.269492019434e-13,        -7.087249411816e-13,        +3.355846278410e-05
 8.70000000e+00,        +4.182424266309e-13,        -7.078777866880e-13,        +3.430226584106e-05
 8.80000000e+00,        +4.096433051035e-13,        -7.069330465663e-13,        +3.505619062864e-05
 8.90000000e+00,        +4.011516865549e-13,        -7.058942339255e-13,        +3.582030993480e-05
 9.00000000e+00,        +3.927673488104e-13,        -7.047647832512e-13,        +3.659468923838e-05
 9.10000000e+00,        +3.844900022963e-13,        -7.035480510283e-13,        +3.737938610959e-05
 9.20000000e+00,        +3.763192938367e-13,        -7.022473164715e-13,        +3.817444960872e-05
 9.30000000e+00,        +3.682548102800e-13,        -7.008657823508e-13,        +3.897991968683e-05
 9.40000000e+00,        +3.602960819590e-13,        -6.994065759036e-13,        +3.979582659258e-05
 9.50000000e+00,        +3.524425859862e-13,        -6.978727498210e-13,        +4.062219029031e-05
 9.60000000e+00,        +3.446937493891e-13,        -6.962672833006e-13,        +4.145901989461e-05
 9.70000000e+00,        +3.370489520893e-13,        -6.945930831556e-13,        +4.230631312773e-05
 9.80000000e+00,        +3.295075297278e-13,        -6.928529849734e-13,        +4.316405580647e-05
 9.90000000e+00,        +3.220687763438e-13,        -6.910497543143e-13,        +4.403222136617e-05
 1.00000000e+01,        +3.147319469078e-13,        -6.891860879448e-13,        +4.491077043015e-05
 1.01000000e+01,        +3.074962597168e-13,        -6.872646150985e-13,        +4.579965043353e-05
 1.02000000e+01,        +3.003608986538e-13,        -6.852878987578e-13,        +4.669879531164e-05
 1.03000000e+01,        +2.933250153169e-13,        -6.832584369534e-13,        +4.760812526363e-05
 1.04000000e+01,        +2.863877310236e-13,        -6.811786640745e-13,        +4.852754660324e-05
 1.05000000e+01,        +2.795481386921e-13,        -6.790509521870e-13,        +4.945695170948e-05
 1.06000000e+01,        +2.728053046068e-13,        -6.768776123557e-13,        +5.039621909101e-05
 1.07000000e+01,        +2.661582700693e-13,        -6.746608959677e-13,        +5.134521357930e-05
 1.08000000e+01,        +2.596060529401e-13,        -6.724029960543e-13,        +5.230378666680e-05
 1.09000000e+01,        +2.531476490739e-13,        -6.701060486093e-13,        +5.327177700756e-05
 1.10000000e+01,        +2.467820336507e-13,        -6.677721339020e-13,        +5.424901109956e-05
 1.11000000e+01,        +2.405081624056e-13,        -6.654032777843e-13,        +5.523530416929e-05
 1.12000000e+01,        +2.343249727580e-13,        -6.630014529898e-13,        +5.623046128133e-05
 1.13000000e+01,        +2.282313848420e-13,        -6.605685804251e-13,        +5.723427869774e-05
 1.14000000e+01,        +2.222263024367e-13,        -6.581065304519e-13,        +5.824654551467e-05
 1.15000000e+01,        +2.163086137965e-13,        -6.556171241601e-13,        +5.926704560656e-05
 1.16000000e+01,        +2.104771923789e-13,        -6.531021346294e-13,        +6.029555991197e-05
 1.17000000e+01,        +2.047308974658e-13,        -6.505632881793e-13,        +6.133186909927e-05
 1.18000000e+01,        +1.990685746765e-13,        -6.480022656050e-13,        +6.237575665552e-05
 1.19000000e+01,        +1.934890563634e-13,        -6.454207033958e-13,        +6.342701244781e-05
 1.20000000e+01,        +1.879911618873e-13,        -6.428201949324e-13,        +6.448543681333e-05
 1.21000000e+01,        +1.825736977619e-13,        -6.402022916559e-13,        +6.555084524293e-05
 1.22000000e+01,        +1.772354576601e-13,        -6.375685042022e-13,        +6.662307373194e-05
 1.23000000e+01,        +1.719752222717e-13,        -6.349203034896e-13,        +6.770198488304e-05
 1.24000000e+01,        +1.667917590031e-13,        -6.322591217475e-13,        +6.878747485747e-05
 1.25000000e+01,        +1.616838215081e-13,        -6.295863534674e-13,        +6.987948128330e-05
 1.26000000e+01,        +1.566501490393e-13,        -6.269033562579e-13,        +7.097799224211e-05
 1.27000000e+01,        +1.516894656135e-13,        -6.242114515747e-13,        +7.208305646681e-05
 1.28000000e+01,        +1.468004789811e-13,        -6.215119252983e-13,        +7.319479489272e-05
 1.29000000e+01,        +1.419818793986e-13,        -6.188060281212e-13,        +7.431341370869e-05
 1.30000000e+01,        +1.372323382033e-13,        -6.160949757046e-13,        +7.543921905199e-05
 1.31000000e+01,        +1.325505061978e-13,        -6.133799485569e-13,        +7.657263347661e-05
 1.32000000e+01,        +1.279350118583e-13,        -6.106620915816e-13,        +7.771421429362e-05
 1.33000000e+01,        +1.233844593909e-13,        -6.079425132386e-13,        +7.886467382837e-05
 1.34000000e+01,        +1.188974266729e-13,        -6.052222842574e-13,        +8.002490155560e-05
 1.35000000e+01,        +1.144724631277e-13,        -6.025024358412e-13,        +8.119598795018e-05
 1.36000000e+01,        +1.101080876020e-13,        -5.997839572987e-13,        +8.237924972025e-05
 1.37000000e+01,        +1.058027863273e-13,        -5.970677930470e-13,        +8.357625586173e-05
 1.38000000e+01,        +1.015550110722e-13,        -5.943548389353e-13,        +8.478885368030e-05
 1.39000000e+01,        +9.736317761082e-14,        -5.916459378504e-13,        +8.601919356599e-05
 1.40000000e+01,        +9.322566465096e-14,        -5.889418745866e-13,        +8.726975087729e-05
 1.41000000e+01,        +8.914081339091e-14,        -5.862433699834e-13,        +8.854334280651e-05
 1.42000000e+01,        +8.510692788477e-14,        -5.835510743692e-13,        +8.984313757978e-05
 1.43000000e+01,        +8.112227641149e-14,        -5.808655603873e-13,        +9.117265283062e-05
 1.44000000e+01,        +7.718509404618e-14,        -5.781873153251e-13,        +9.253573953450e-05
 1.45000000e+01,        +7.329358662727e-14,        -5.755167331233e-13,        +9.393654758007e-05
 1.46000000e+01,        +6.944593629523e-14,        -5.728541062942e-13,        +9.537946897749e-05
 1.47000000e+01,        +6.564030874553e-14,        -5.701996180404e-13,        +9.686905497553e-05
 1.48000000e+01,        +6.187486228760e-14,        -5.675533349200e-13,        +9.840990408783e-05
 1.49000000e+01,        +5.814775873206e-14,        -5.649152004551e-13,        +1.000065193119e-04
 1.50000000e+01,        +5.445717603941e-14,        -5.622850301145e-13,        +1.016631347181e-04
 1.51000000e+01,        +5.080132255686e-14,        -5.596625081202e-13,        +1.033835140812e-04
 1.52000000e+01,        +4.717845255116e-14,        -5.570471865155e-13,        +1.051707272245e-04
 1.53000000e+01,        +4.358688261948e-14,        -5.544384868854e-13,        +1.070269130273e-04
 1.54000000e+01,        +4.002500843995e-14,        -5.518357050409e-13,        +1.089530412882e-04
 1.55000000e+01,        +3.649132121932e-14,        -5.492380188511e-13,        +1.109486884056e-04
 1.56000000e+01,        +3.298442312222e-14,        -5.466444992523e-13,        +1.130118436631e-04
 1.57000000e+01,        +2.950304093854e-14,        -5.440541242721e-13,        +1.151387633282e-04
 1.58000000e+01,        +2.604603727313e-14,        -5.414657957070e-13,        +1.173238884564e-04
 1.59000000e+01,        +2.261241863160e-14,        -5.388783578969e-13,        +1.195598390953e-04
 1.60000000e+01,        +1.920133992667e-14,        -5.362906178683e-13,        +1.218374926336e-04
 1.61000000e+01,        +1.581210513076e-14,        -5.337013659995e-13,        +1.241461477792e-04
 1.62000000e+01,        +1.244416403655e-14,        -5.311093962999e-13,        +1.264737687333e-04
 1.63000000e+01,        +9.097105332361e-15,        -5.285135254174e-13,        +1.288072974162e-04
 1.64000000e+01,        +5.770646429727e-15,        -5.259126095762e-13,        +1.311330159260e-04
 1.65000000e+01,        +2.464620669849e-15,        -5.233055588064e-13,        +1.334369375095e-04
 1.66000000e+01,        -8.210373341271e-16,        -5.206913480284e-13,        +1.357052026282e-04
 1.67000000e+01,        -4.086307402078e-15,        -5.180690247833e-13,        +1.379244573529e-04
 1.68000000e+01,        -7.331099733210e-15,        -5.154377136251e-13,        +1.400821940643e-04
 1.69000000e+01,        -1.055527036199e-14,        -5.127966173882e-13,        +1.421670388076e-04
 1.70000000e+01,        -1.375863551393e-14,        -5.101450157042e-13,        +1.441689749512e-04
 1.71000000e+01,        -1.694098440310e-14,        -5.074822612495e-13,        +1.460794983579e-04
 1.72000000e+01,        -2.010209017458e-14,        -5.048077742553e-13,        +1.478917044470e-04
 1.73000000e+01,        -2.324171885024e-14,        -5.021210358231e-13,        +1.496003118496e-04
 1.74000000e+01,        -2.635963627147e-14,        -4.994215805479e-13,        +1.512016305571e-04
 1.75000000e+01,        -2.945561314097e-14,        -4.967089888952e-13,        +1.526934844527e-04
 1.76000000e+01,        -3.252942834333e-14,        -4.939828796935e-13,        +1.540750989675e-04
 1.77000000e+01,        -3.558087077284e-14,        -4.912429030244e-13,        +1.553469644997e-04
 1.78000000e+01,        -3.860973991888e-14,        -4.884887337051e-13,        +1.565106854101e-04
 1.79000000e+01,        -4.161584546098e-14,        -4.857200654880e-13,        +1.575688231144e-04
 1.80000000e+01,        -4.459900611119e-14,        -4.829366060361e-13,        +1.585247402501e-04
 1.81000000e+01,        -4.755904791736e-14,        -4.801380726857e-13,        +1.593824512969e-04
 1.82000000e+01,        -5.049580221121e-14,        -4.773241889680e-13,        +1.601464835082e-04
 1.83000000e+01,        -5.340910335338e-14,        -4.744946818388e-13,        +1.608217506519e-04
 1.84000000e+01,        -5.629878639663e-14,        -4.716492795471e-13,        +1.614134409219e-04
 1.85000000e+01,        -5.916468476016e-14,        -4.687877100670e-13,        +1.619269194621e-04
 1.86000000e+01,        -6.200662798281e-14,        -4.659097000145e-13,        +1.623676452601e-04
 1.87000000e+01,        -6.482443960184e-14,        -4.630149739744e-13,        +1.627411016711e-04
 1.88000000e+01,        -6.761793518673e-14,        -4.601032541663e-13,        +1.630527395101e-04
 1.89000000e+01,        -7.038692054379e-14,        -4.571742603863e-13,        +1.633079314695e-04
 1.90000000e+01,        -7.313119009699e-14,        -4.542277101686e-13,        +1.635119365340e-04
 1.91000000e+01,        -7.585052544245e-14,        -4.512633191183e-13,        +1.636698730699e-04
 1.92000000e+01,        -7.854469406921e-14,        -4.482808013761e-13,        +1.637866993182e-04
 1.93000000e+01,        -8.121344823462e-14,        -4.452798701795e-13,        +1.638672001102e-04
 1.94000000e+01,        -8.385652398103e-14,        -4.422602384953e-13,        +1.639159787363e-04
 1.95000000e+01,        -8.647364027927e-14,        -4.392216197000e-13,        +1.639374530169e-04
 1.96000000e+01,        -8.906449828403e-14,        -4.361637282925e-13,        +1.639358547469e-04
 1.97000000e+01,        -9.162878068688e-14,        -4.330862806263e-13,        +1.639152317984e-04
 1.98000000e+01,        -9.416615115306e-14,        -4.299889956511e-13,        +1.638794522769e-04
 1.99000000e+01,        -9.667625382946e-14,        -4.268715956593e-13,        +1.638322102236e-04
 2.00000000e+01,        -9.915871291219e-14,        -4.237338070314e-13,        +1.637770324429e-04
 2.01000000e+01,        -1.016131322635e-13,        -4.205753609806e-13,        +1.637172861119e-04
 2.02000000e+01,        -1.040390950687e-13,        -4.173959942937e-13,        +1.636561868935e-04
 2.03000000e+01,        -1.064361635261e-13,        -4.141954500711e-13,        +1.635968073310e-04
 2.04000000e+01,        -1.088038785616e-13,        -4.109734784667e-13,        +1.635420853503e-04
 2.05000000e+01,        -1.111417595646e-13,        -4.077298374296e-13,        +1.634948327332e-04
 2.06000000e+01,        -1.134493041390e-13,        -4.044642934514e-13,        +1.634577434595e-04
 2.07000000e+01,        -1.157259878661e-13,        -4.011766223217e-13,        +1.634334018417e-04
 2.08000000e+01,        -1.179712640781e-13,        -3.978666098961e-13,        +1.634242903970e-04
 2.09000000e+01,        -1.201845636379e-13,        -3.945340528786e-13,        +1.634327974189e-04
 2.10000000e+01,        -1.223652947267e-13,        -3.911787596243e-13,        +1.634612242244e-04
 2.11000000e+01,        -1.245128426376e-13,        -3.878005509644e-13,        +1.635117920632e-04
 2.12000000e+01,        -1.266265695749e-13,        -3.843992610577e-13,        +1.635866486839e-04
 2.13000000e+01,        -1.287058144622e-13,        -3.809747382723e-13,        +1.636878745570e-04
 2.14000000e+01,        -1.307498927577e-13,        -3.775268461004e-13,        +1.638174887613e-04
 2.15000000e+01,        -1.327580962810e-13,        -3.740554641096e-13,        +1.639774545417e-04
 2.16000000e+01,        -1.347296930519e-13,        -3.705604889338e-13,        +1.641696845495e-04
 2.17000000e+01,        -1.366639271453e-13,        -3.670418353066e-13,        +1.643960457770e-04
 2.18000000e+01,        -1.385600185638e-13,        -3.634994371393e-13,        +1.646583641999e-04
