         f (GHz),               p_surf[1],               Q_surf[1],               p_surf[2],               Q_surf[2],               p_surf[3],               Q_surf[3]
 2.000000000e+00,        +9.430586278e-05,        +1.060379462e+04,        +3.333519527e-05,        +2.999832435e+04,        +2.770093878e-07,        +3.609985957e+06
 2.100000000e+00,        +9.430869976e-05,        +1.060347563e+04,        +3.333655171e-05,        +2.999710374e+04,        +2.770396914e-07,        +3.609591084e+06
 2.200000000e+00,        +9.431144399e-05,        +1.060316710e+04,        +3.333781149e-05,        +2.999597020e+04,        +2.770701951e-07,        +3.609193691e+06
 2.300000000e+00,        +9.431408570e-05,        +1.060287011e+04,        +3.333896413e-05,        +2.999493314e+04,        +2.771008806e-07,        +3.608794017e+06
 2.400000000e+00,        +9.431661607e-05,        +1.060258565e+04,        +3.333999982e-05,        +2.999400136e+04,        +2.771317349e-07,        +3.608392234e+06
 2.500000000e+00,        +9.431902710e-05,        +1.060231462e+04,        +3.334090942e-05,        +2.999318307e+04,        +2.771627494e-07,        +3.607988455e+06
 2.600000000e+00,        +9.432131155e-05,        +1.060205783e+04,        +3.334168440e-05,        +2.999248593e+04,        +2.771939192e-07,        +3.607582746e+06
 2.700000000e+00,        +9.432346281e-05,        +1.060181603e+04,        +3.334231678e-05,        +2.999191708e+04,        +2.772252423e-07,        +3.607175132e+06
 2.800000000e+00,        +9.432547482e-05,        +1.060158989e+04,        +3.334279912e-05,        +2.999148321e+04,        +2.772567192e-07,        +3.606765610e+06
 2.900000000e+00,        +9.432734206e-05,        +1.060138003e+04,        +3.334312445e-05,        +2.999119059e+04,        +2.772883524e-07,        +3.606354149e+06
 3.000000000e+00,        +9.432905940e-05,        +1.060118702e+04,        +3.334328622e-05,        +2.999104508e+04,        +2.773201458e-07,        +3.605940697e+06
 3.100000000e+00,        +9.433062211e-05,        +1.060101140e+04,        +3.334327829e-05,        +2.999105221e+04,        +2.773521048e-07,        +3.605525189e+06
 3.200000000e+00,        +9.433202577e-05,        +1.060085365e+04,        +3.334309486e-05,        +2.999121720e+04,        +2.773842354e-07,        +3.605107545e+06
 3.300000000e+00,        +9.433326624e-05,        +1.060071425e+04,        +3.334273043e-05,        +2.999154499e+04,        +2.774165447e-07,        +3.604687676e+06
 3.400000000e+00,        +9.433433962e-05,        +1.060059363e+04,        +3.334217980e-05,        +2.999204029e+04,        +2.774490402e-07,        +3.604265487e+06
 3.500000000e+00,        +9.433524220e-05,        +1.060049221e+04,        +3.334143799e-05,        +2.999270758e+04,        +2.774817295e-07,        +3.603840879e+06
 3.600000000e+00,        +9.433597045e-05,        +1.060041038e+04,        +3.334050026e-05,        +2.999355115e+04,        +2.775146207e-07,        +3.603413750e+06
 3.700000000e+00,        +9.433652095e-05,        +1.060034852e+04,        +3.333936203e-05,        +2.999457515e+04,        +2.775477218e-07,        +3.602983997e+06
 3.800000000e+00,        +9.433689041e-05,        +1.060030700e+04,        +3.333801891e-05,        +2.999578357e+04,        +2.775810405e-07,        +3.602551522e+06
 3.900000000e+00,        +9.433707564e-05,        +1.060028619e+04,        +3.333646667e-05,        +2.999718026e+04,        +2.776145847e-07,        +3.602116226e+06
 4.000000000e+00,        +9.433707352e-05,        +1.060028643e+04,        +3.333470119e-05,        +2.999876898e+04,        +2.776483616e-07,        +3.601678015e+06
 4.100000000e+00,        +9.433688099e-05,        +1.060030806e+04,        +3.333271849e-05,        +3.000055337e+04,        +2.776823783e-07,        +3.601236802e+06
 4.200000000e+00,        +9.433649504e-05,        +1.060035143e+04,        +3.333051471e-05,        +3.000253698e+04,        +2.777166413e-07,        +3.600792503e+06
 4.300000000e+00,        +9.433591271e-05,        +1.060041686e+04,        +3.332808608e-05,        +3.000472327e+04,        +2.777511567e-07,        +3.600345043e+06
 4.400000000e+00,        +9.433513110e-05,        +1.060050469e+04,        +3.332542898e-05,        +3.000711560e+04,        +2.777859297e-07,        +3.599894355e+06
 4.500000000e+00,        +9.433414734e-05,        +1.060061524e+04,        +3.332253986e-05,        +3.000971727e+04,        +2.778209651e-07,        +3.599440379e+06
 4.600000000e+00,        +9.433295860e-05,        +1.060074882e+04,        +3.331941532e-05,        +3.001253145e+04,        +2.778562672e-07,        +3.598983065e+06
 4.700000000e+00,        +9.433156211e-05,        +1.060090576e+04,        +3.331605204e-05,        +3.001556123e+04,        +2.778918392e-07,        +3.598522371e+06
 4.800000000e+00,        +9.432995516e-05,        +1.060108635e+04,        +3.331244688e-05,        +3.001880959e+04,        +2.779276837e-07,        +3.598058267e+06
 4.900000000e+00,        +9.432813509e-05,        +1.060129090e+04,        +3.330859681e-05,        +3.002227940e+04,        +2.779638026e-07,        +3.597590732e+06
 5.000000000e+00,        +9.432609935e-05,        +1.060151970e+04,        +3.330449896e-05,        +3.002597340e+04,        +2.780001970e-07,        +3.597119753e+06
 5.100000000e+00,        +9.432384544e-05,        +1.060177302e+04,        +3.330015065e-05,        +3.002989417e+04,        +2.780368671e-07,        +3.596645332e+06
 5.200000000e+00,        +9.432137100e-05,        +1.060205115e+04,        +3.329554937e-05,        +3.003404415e+04,        +2.780738123e-07,        +3.596167477e+06
 5.300000000e+00,        +9.431867377e-05,        +1.060235434e+04,        +3.329069284e-05,        +3.003842560e+04,        +2.781110312e-07,        +3.595686210e+06
 5.400000000e+00,        +9.431575165e-05,        +1.060268282e+04,        +3.328557899e-05,        +3.004304057e+04,        +2.781485217e-07,        +3.595201563e+06
 5.500000000e+00,        +9.431260268e-05,        +1.060303683e+04,        +3.328020603e-05,        +3.004789090e+04,        +2.781862807e-07,        +3.594713577e+06
 5.600000000e+00,        +9.430922510e-05,        +1.060341657e+04,        +3.327457243e-05,        +3.005297820e+04,        +2.782243043e-07,        +3.594222305e+06
 5.700000000e+00,        +9.430561733e-05,        +1.060382221e+04,        +3.326867697e-05,        +3.005830381e+04,        +2.782625877e-07,        +3.593727810e+06
 5.800000000e+00,        +9.430177803e-05,        +1.060425393e+04,        +3.326251877e-05,        +3.006386879e+04,        +2.783011257e-07,        +3.593230166e+06
 5.900000000e+00,        +9.429770609e-05,        +1.060471184e+04,        +3.325609728e-05,        +3.006967389e+04,        +2.783399118e-07,        +3.592729456e+06
 6.000000000e+00,        +9.429340069e-05,        +1.060519604e+04,        +3.324941236e-05,        +3.007571951e+04,        +2.783789390e-07,        +3.592225775e+06
 6.100000000e+00,        +9.428886127e-05,        +1.060570662e+04,        +3.324246427e-05,        +3.008200571e+04,        +2.784181995e-07,        +3.591719225e+06
 6.200000000e+00,        +9.428408761e-05,        +1.060624359e+04,        +3.323525370e-05,        +3.008853216e+04,        +2.784576848e-07,        +3.591209920e+06
 6.300000000e+00,        +9.427907982e-05,        +1.060680696e+04,        +3.322778182e-05,        +3.009529813e+04,        +2.784973854e-07,        +3.590697982e+06
 6.400000000e+00,        +9.427383837e-05,        +1.060739668e+04,        +3.322005027e-05,        +3.010230243e+04,        +2.785372915e-07,        +3.590183543e+06
 6.500000000e+00,        +9.426836410e-05,        +1.060801266e+04,        +3.321206121e-05,        +3.010954345e+04,        +2.785773923e-07,        +3.589666741e+06
 6.600000000e+00,        +9.426265828e-05,        +1.060865478e+04,        +3.320381735e-05,        +3.011701906e+04,        +2.786176764e-07,        +3.589147727e+06
 6.700000000e+00,        +9.425672257e-05,        +1.060932284e+04,        +3.319532195e-05,        +3.012472666e+04,        +2.786581319e-07,        +3.588626656e+06
 6.800000000e+00,        +9.425055910e-05,        +1.061001664e+04,        +3.318657885e-05,        +3.013266310e+04,        +2.786987461e-07,        +3.588103693e+06
 6.900000000e+00,        +9.424417046e-05,        +1.061073587e+04,        +3.317759250e-05,        +3.014082472e+04,        +2.787395057e-07,        +3.587579010e+06
 7.000000000e+00,        +9.423755969e-05,        +1.061148021e+04,        +3.316836797e-05,        +3.014920725e+04,        +2.787803970e-07,        +3.587052787e+06
 7.100000000e+00,        +9.423073035e-05,        +1.061224928e+04,        +3.315891095e-05,        +3.015780589e+04,        +2.788214055e-07,        +3.586525210e+06
 7.200000000e+00,        +9.422368650e-05,        +1.061304261e+04,        +3.314922781e-05,        +3.016661521e+04,        +2.788625165e-07,        +3.585996471e+06
 7.300000000e+00,        +9.421643273e-05,        +1.061385972e+04,        +3.313932556e-05,        +3.017562920e+04,        +2.789037144e-07,        +3.585466770e+06
 7.400000000e+00,        +9.420897413e-05,        +1.061470002e+04,        +3.312921187e-05,        +3.018484122e+04,        +2.789449834e-07,        +3.584936312e+06
 7.500000000e+00,        +9.420131635e-05,        +1.061556291e+04,        +3.311889511e-05,        +3.019424400e+04,        +2.789863072e-07,        +3.584405306e+06
 7.600000000e+00,        +9.419346557e-05,        +1.061644769e+04,        +3.310838431e-05,        +3.020382966e+04,        +2.790276692e-07,        +3.583873968e+06
 7.700000000e+00,        +9.418542852e-05,        +1.061735361e+04,        +3.309768919e-05,        +3.021358966e+04,        +2.790690522e-07,        +3.583342518e+06
 7.800000000e+00,        +9.417721247e-05,        +1.061827988e+04,        +3.308682014e-05,        +3.022351486e+04,        +2.791104387e-07,        +3.582811179e+06
 7.900000000e+00,        +9.416882523e-05,        +1.061922560e+04,        +3.307578821e-05,        +3.023359545e+04,        +2.791518110e-07,        +3.582280181e+06
 8.000000000e+00,        +9.416027514e-05,        +1.062018987e+04,        +3.306460513e-05,        +3.024382103e+04,        +2.791931511e-07,        +3.581749753e+06
 8.100000000e+00,        +9.415157109e-05,        +1.062117167e+04,        +3.305328326e-05,        +3.025418056e+04,        +2.792344406e-07,        +3.581220131e+06
 8.200000000e+00,        +9.414272248e-05,        +1.062216997e+04,        +3.304183560e-05,        +3.026466241e+04,        +2.792756610e-07,        +3.580691552e+06
 8.300000000e+00,        +9.413373919e-05,        +1.062318366e+04,        +3.303027576e-05,        +3.027525435e+04,        +2.793167936e-07,        +3.580164254e+06
 8.400000000e+00,        +9.412463163e-05,        +1.062421157e+04,        +3.301861794e-05,        +3.028594358e+04,        +2.793578196e-07,        +3.579638477e+06
 8.500000000e+00,        +9.411541064e-05,        +1.062525248e+04,        +3.300687689e-05,        +3.029671675e+04,        +2.793987200e-07,        +3.579114465e+06
 8.600000000e+00,        +9.410608755e-05,        +1.062630512e+04,        +3.299506792e-05,        +3.030755998e+04,        +2.794394756e-07,        +3.578592458e+06
 8.700000000e+00,        +9.409667407e-05,        +1.062736818e+04,        +3.298320681e-05,        +3.031845890e+04,        +2.794800675e-07,        +3.578072701e+06
 8.800000000e+00,        +9.408718233e-05,        +1.062844030e+04,        +3.297130982e-05,        +3.032939866e+04,        +2.795204765e-07,        +3.577555435e+06
 8.900000000e+00,        +9.407762484e-05,        +1.062952006e+04,        +3.295939365e-05,        +3.034036398e+04,        +2.795606835e-07,        +3.577040904e+06
 9.000000000e+00,        +9.406801440e-05,        +1.063060602e+04,        +3.294747537e-05,        +3.035133918e+04,        +2.796006694e-07,        +3.576529348e+06
 9.100000000e+00,        +9.405836416e-05,        +1.063169670e+04,        +3.293557238e-05,        +3.036230822e+04,        +2.796404153e-07,        +3.576021009e+06
 9.200000000e+00,        +9.404868751e-05,        +1.063279059e+04,        +3.292370241e-05,        +3.037325474e+04,        +2.796799022e-07,        +3.575516124e+06
 9.300000000e+00,        +9.403899805e-05,        +1.063388616e+04,        +3.291188341e-05,        +3.038416209e+04,        +2.797191115e-07,        +3.575014931e+06
 9.400000000e+00,        +9.402930960e-05,        +1.063498184e+04,        +3.290013354e-05,        +3.039501341e+04,        +2.797580245e-07,        +3.574517664e+06
 9.500000000e+00,        +9.401963609e-05,        +1.063607605e+04,        +3.288847110e-05,        +3.040579165e+04,        +2.797966228e-07,        +3.574024554e+06
 9.600000000e+00,        +9.400999158e-05,        +1.063716721e+04,        +3.287691451e-05,        +3.041647961e+04,        +2.798348882e-07,        +3.573535832e+06
 9.700000000e+00,        +9.400039017e-05,        +1.063825372e+04,        +3.286548220e-05,        +3.042706003e+04,        +2.798728026e-07,        +3.573051724e+06
 9.800000000e+00,        +9.399084596e-05,        +1.063933397e+04,        +3.285419260e-05,        +3.043751560e+04,        +2.799103484e-07,        +3.572572453e+06
 9.900000000e+00,        +9.398137305e-05,        +1.064040636e+04,        +3.284306408e-05,        +3.044782903e+04,        +2.799475080e-07,        +3.572098238e+06
 1.000000000e+01,        +9.397198545e-05,        +1.064146932e+04,        +3.283211487e-05,        +3.045798310e+04,        +2.799842641e-07,        +3.571629296e+06
 1.010000000e+01,        +9.396269702e-05,        +1.064252125e+04,        +3.282136305e-05,        +3.046796071e+04,        +2.800205996e-07,        +3.571165840e+06
 1.020000000e+01,        +9.395352151e-05,        +1.064356060e+04,        +3.281082646e-05,        +3.047774494e+04,        +2.800564980e-07,        +3.570708080e+06
 1.030000000e+01,        +9.394447241e-05,        +1.064458583e+04,        +3.280052265e-05,        +3.048731908e+04,        +2.800919426e-07,        +3.570256219e+06
 1.040000000e+01,        +9.393556297e-05,        +1.064559543e+04,        +3.279046886e-05,        +3.049666671e+04,        +2.801269173e-07,        +3.569810461e+06
 1.050000000e+01,        +9.392680618e-05,        +1.064658792e+04,        +3.278068193e-05,        +3.050577172e+04,        +2.801614063e-07,        +3.569371004e+06
 1.060000000e+01,        +9.391821464e-05,        +1.064756186e+04,        +3.277117830e-05,        +3.051461839e+04,        +2.801953938e-07,        +3.568938041e+06
 1.070000000e+01,        +9.390980064e-05,        +1.064851584e+04,        +3.276197392e-05,        +3.052319139e+04,        +2.802288647e-07,        +3.568511763e+06
 1.080000000e+01,        +9.390157602e-05,        +1.064944852e+04,        +3.275308422e-05,        +3.053147586e+04,        +2.802618037e-07,        +3.568092358e+06
 1.090000000e+01,        +9.389355221e-05,        +1.065035859e+04,        +3.274452410e-05,        +3.053945744e+04,        +2.802941962e-07,        +3.567680007e+06
 1.100000000e+01,        +9.388574016e-05,        +1.065124478e+04,        +3.273630785e-05,        +3.054712231e+04,        +2.803260277e-07,        +3.567274891e+06
 1.110000000e+01,        +9.387815033e-05,        +1.065210591e+04,        +3.272844917e-05,        +3.055445722e+04,        +2.803572840e-07,        +3.566877185e+06
 1.120000000e+01,        +9.387079266e-05,        +1.065294083e+04,        +3.272096107e-05,        +3.056144952e+04,        +2.803879513e-07,        +3.566487060e+06
 1.130000000e+01,        +9.386367657e-05,        +1.065374846e+04,        +3.271385592e-05,        +3.056808719e+04,        +2.804180158e-07,        +3.566104685e+06
 1.140000000e+01,        +9.385681090e-05,        +1.065452779e+04,        +3.270714536e-05,        +3.057435888e+04,        +2.804474645e-07,        +3.565730223e+06
 1.150000000e+01,        +9.385020395e-05,        +1.065527786e+04,        +3.270084033e-05,        +3.058025390e+04,        +2.804762844e-07,        +3.565363832e+06
 1.160000000e+01,        +9.384386343e-05,        +1.065599778e+04,        +3.269495103e-05,        +3.058576228e+04,        +2.805044629e-07,        +3.565005667e+06
 1.170000000e+01,        +9.383779649e-05,        +1.065668672e+04,        +3.268948693e-05,        +3.059087474e+04,        +2.805319880e-07,        +3.564655878e+06
 1.180000000e+01,        +9.383200971e-05,        +1.065734394e+04,        +3.268445674e-05,        +3.059558273e+04,        +2.805588480e-07,        +3.564314606e+06
 1.190000000e+01,        +9.382650909e-05,        +1.065796873e+04,        +3.267986842e-05,        +3.059987840e+04,        +2.805850318e-07,        +3.563981990e+06
 1.200000000e+01,        +9.382130007e-05,        +1.065856047e+04,        +3.267572920e-05,        +3.060375467e+04,        +2.806105287e-07,        +3.563658159e+06
 1.210000000e+01,        +9.381638757e-05,        +1.065911858e+04,        +3.267204553e-05,        +3.060720514e+04,        +2.806353288e-07,        +3.563343234e+06
 1.220000000e+01,        +9.381177599e-05,        +1.065964256e+04,        +3.266882318e-05,        +3.061022414e+04,        +2.806594229e-07,        +3.563037327e+06
 1.230000000e+01,        +9.380746923e-05,        +1.066013195e+04,        +3.266606716e-05,        +3.061280671e+04,        +2.806828028e-07,        +3.562740538e+06
 1.240000000e+01,        +9.380347075e-05,        +1.066058635e+04,        +3.266378181e-05,        +3.061494857e+04,        +2.807054610e-07,        +3.562452958e+06
 1.250000000e+01,        +9.379978358e-05,        +1.066100541e+04,        +3.266197078e-05,        +3.061664609e+04,        +2.807273914e-07,        +3.562174660e+06
 1.260000000e+01,        +9.379641039e-05,        +1.066138881e+04,        +3.266063711e-05,        +3.061789630e+04,        +2.807485890e-07,        +3.561905702e+06
 1.270000000e+01,        +9.379335353e-05,        +1.066173628e+04,        +3.265978319e-05,        +3.061869683e+04,        +2.807690503e-07,        +3.561646125e+06
 1.280000000e+01,        +9.379061507e-05,        +1.066204758e+04,        +3.265941085e-05,        +3.061904590e+04,        +2.807887734e-07,        +3.561395949e+06
 1.290000000e+01,        +9.378819688e-05,        +1.066232248e+04,        +3.265952139e-05,        +3.061894227e+04,        +2.808077584e-07,        +3.561155168e+06
 1.300000000e+01,        +9.378610071e-05,        +1.066256079e+04,        +3.266011562e-05,        +3.061838518e+04,        +2.808260073e-07,        +3.560923754e+06
 1.310000000e+01,        +9.378432821e-05,        +1.066276231e+04,        +3.266119390e-05,        +3.061737434e+04,        +2.808435246e-07,        +3.560701645e+06
 1.320000000e+01,        +9.378288105e-05,        +1.066292685e+04,        +3.266275620e-05,        +3.061590988e+04,        +2.808603172e-07,        +3.560488751e+06
 1.330000000e+01,        +9.378176098e-05,        +1.066305420e+04,        +3.266480215e-05,        +3.061399226e+04,        +2.808763950e-07,        +3.560284943e+06
 1.340000000e+01,        +9.378096989e-05,        +1.066314415e+04,        +3.266733110e-05,        +3.061162226e+04,        +2.808917709e-07,        +3.560090055e+06
 1.350000000e+01,        +9.378050990e-05,        +1.066319645e+04,        +3.267034219e-05,        +3.060880092e+04,        +2.809064611e-07,        +3.559903878e+06
 1.360000000e+01,        +9.378038345e-05,        +1.066321083e+04,        +3.267383437e-05,        +3.060552945e+04,        +2.809204854e-07,        +3.559726157e+06
 1.370000000e+01,        +9.378059333e-05,        +1.066318696e+04,        +3.267780649e-05,        +3.060180922e+04,        +2.809338676e-07,        +3.559556591e+06
