         f (GHz),               p_surf[1],               Q_surf[1],               p_surf[2],               Q_surf[2],               p_surf[3],               Q_surf[3]
 2.000000000e+00,        +9.449671109e-05,        +1.058237888e+04,        +3.222607899e-05,        +3.103076860e+04,        +2.692246925e-07,        +3.714369550e+06
 2.100000000e+00,        +9.449950685e-05,        +1.058206580e+04,        +3.222752304e-05,        +3.102937817e+04,        +2.692555799e-07,        +3.713943460e+06
 2.200000000e+00,        +9.450220696e-05,        +1.058176345e+04,        +3.222887810e-05,        +3.102807354e+04,        +2.692866927e-07,        +3.713514359e+06
 2.300000000e+00,        +9.450480155e-05,        +1.058147294e+04,        +3.223013373e-05,        +3.102686475e+04,        +2.693180134e-07,        +3.713082491e+06
 2.400000000e+00,        +9.450728168e-05,        +1.058119525e+04,        +3.223128014e-05,        +3.102576117e+04,        +2.693495297e-07,        +3.712648028e+06
 2.500000000e+00,        +9.450963927e-05,        +1.058093130e+04,        +3.223230823e-05,        +3.102477157e+04,        +2.693812334e-07,        +3.712211082e+06
 2.600000000e+00,        +9.451186698e-05,        +1.058068190e+04,        +3.223320948e-05,        +3.102390411e+04,        +2.694131200e-07,        +3.711771721e+06
 2.700000000e+00,        +9.451395813e-05,        +1.058044780e+04,        +3.223397595e-05,        +3.102316641e+04,        +2.694451872e-07,        +3.711329975e+06
 2.800000000e+00,        +9.451590662e-05,        +1.058022968e+04,        +3.223460021e-05,        +3.102256561e+04,        +2.694774354e-07,        +3.710885843e+06
 2.900000000e+00,        +9.451770683e-05,        +1.058002816e+04,        +3.223507534e-05,        +3.102210836e+04,        +2.695098663e-07,        +3.710439301e+06
 3.000000000e+00,        +9.451935363e-05,        +1.057984383e+04,        +3.223539480e-05,        +3.102180092e+04,        +2.695424833e-07,        +3.709990305e+06
 3.100000000e+00,        +9.452084223e-05,        +1.057967721e+04,        +3.223555250e-05,        +3.102164916e+04,        +2.695752906e-07,        +3.709538799e+06
 3.200000000e+00,        +9.452216819e-05,        +1.057952879e+04,        +3.223554266e-05,        +3.102165863e+04,        +2.696082933e-07,        +3.709084716e+06
 3.300000000e+00,        +9.452332736e-05,        +1.057939905e+04,        +3.223535985e-05,        +3.102183456e+04,        +2.696414969e-07,        +3.708627980e+06
 3.400000000e+00,        +9.452431582e-05,        +1.057928842e+04,        +3.223499889e-05,        +3.102218193e+04,        +2.696749074e-07,        +3.708168512e+06
 3.500000000e+00,        +9.452512985e-05,        +1.057919732e+04,        +3.223445488e-05,        +3.102270548e+04,        +2.697085308e-07,        +3.707706231e+06
 3.600000000e+00,        +9.452576590e-05,        +1.057912613e+04,        +3.223372314e-05,        +3.102340973e+04,        +2.697423731e-07,        +3.707241055e+06
 3.700000000e+00,        +9.452622057e-05,        +1.057907524e+04,        +3.223279916e-05,        +3.102429904e+04,        +2.697764404e-07,        +3.706772906e+06
 3.800000000e+00,        +9.452649057e-05,        +1.057904503e+04,        +3.223167864e-05,        +3.102537759e+04,        +2.698107383e-07,        +3.706301707e+06
 3.900000000e+00,        +9.452657269e-05,        +1.057903584e+04,        +3.223035743e-05,        +3.102664940e+04,        +2.698452723e-07,        +3.705827386e+06
 4.000000000e+00,        +9.452646382e-05,        +1.057904802e+04,        +3.222883153e-05,        +3.102811838e+04,        +2.698800472e-07,        +3.705349878e+06
 4.100000000e+00,        +9.452616091e-05,        +1.057908192e+04,        +3.222709707e-05,        +3.102978832e+04,        +2.699150675e-07,        +3.704869125e+06
 4.200000000e+00,        +9.452566096e-05,        +1.057913787e+04,        +3.222515031e-05,        +3.103166286e+04,        +2.699503371e-07,        +3.704385076e+06
 4.300000000e+00,        +9.452496104e-05,        +1.057921621e+04,        +3.222298764e-05,        +3.103374557e+04,        +2.699858592e-07,        +3.703897689e+06
 4.400000000e+00,        +9.452405824e-05,        +1.057931725e+04,        +3.222060558e-05,        +3.103603989e+04,        +2.700216365e-07,        +3.703406931e+06
 4.500000000e+00,        +9.452294971e-05,        +1.057944132e+04,        +3.221800075e-05,        +3.103854916e+04,        +2.700576707e-07,        +3.702912779e+06
 4.600000000e+00,        +9.452163266e-05,        +1.057958873e+04,        +3.221516992e-05,        +3.104127660e+04,        +2.700939631e-07,        +3.702415221e+06
 4.700000000e+00,        +9.452010435e-05,        +1.057975980e+04,        +3.221210998e-05,        +3.104422531e+04,        +2.701305139e-07,        +3.701914255e+06
 4.800000000e+00,        +9.451836210e-05,        +1.057995481e+04,        +3.220881797e-05,        +3.104739829e+04,        +2.701673226e-07,        +3.701409891e+06
 4.900000000e+00,        +9.451640331e-05,        +1.058017408e+04,        +3.220529109e-05,        +3.105079837e+04,        +2.702043880e-07,        +3.700902148e+06
 5.000000000e+00,        +9.451422545e-05,        +1.058041787e+04,        +3.220152669e-05,        +3.105442825e+04,        +2.702417080e-07,        +3.700391059e+06
 5.100000000e+00,        +9.451182611e-05,        +1.058068647e+04,        +3.219752230e-05,        +3.105829047e+04,        +2.702792796e-07,        +3.699876667e+06
 5.200000000e+00,        +9.450920299e-05,        +1.058098014e+04,        +3.219327565e-05,        +3.106238741e+04,        +2.703170989e-07,        +3.699359027e+06
 5.300000000e+00,        +9.450635391e-05,        +1.058129913e+04,        +3.218878468e-05,        +3.106672122e+04,        +2.703551613e-07,        +3.698838207e+06
 5.400000000e+00,        +9.450327684e-05,        +1.058164366e+04,        +3.218404757e-05,        +3.107129387e+04,        +2.703934612e-07,        +3.698314285e+06
 5.500000000e+00,        +9.449996995e-05,        +1.058201395e+04,        +3.217906273e-05,        +3.107610711e+04,        +2.704319922e-07,        +3.697787350e+06
 5.600000000e+00,        +9.449643155e-05,        +1.058241019e+04,        +3.217382886e-05,        +3.108116241e+04,        +2.704707472e-07,        +3.697257506e+06
 5.700000000e+00,        +9.449266020e-05,        +1.058283255e+04,        +3.216834494e-05,        +3.108646099e+04,        +2.705097179e-07,        +3.696724864e+06
 5.800000000e+00,        +9.448865468e-05,        +1.058328117e+04,        +3.216261026e-05,        +3.109200379e+04,        +2.705488955e-07,        +3.696189549e+06
 5.900000000e+00,        +9.448441401e-05,        +1.058375617e+04,        +3.215662447e-05,        +3.109779141e+04,        +2.705882702e-07,        +3.695651697e+06
 6.000000000e+00,        +9.447993750e-05,        +1.058425764e+04,        +3.215038754e-05,        +3.110382413e+04,        +2.706278315e-07,        +3.695111454e+06
 6.100000000e+00,        +9.447522475e-05,        +1.058478562e+04,        +3.214389987e-05,        +3.111010189e+04,        +2.706675681e-07,        +3.694568976e+06
 6.200000000e+00,        +9.447027571e-05,        +1.058534012e+04,        +3.213716222e-05,        +3.111662421e+04,        +2.707074679e-07,        +3.694024431e+06
 6.300000000e+00,        +9.446509063e-05,        +1.058592114e+04,        +3.213017581e-05,        +3.112339023e+04,        +2.707475180e-07,        +3.693477996e+06
 6.400000000e+00,        +9.445967017e-05,        +1.058652860e+04,        +3.212294230e-05,        +3.113039866e+04,        +2.707877048e-07,        +3.692929857e+06
 6.500000000e+00,        +9.445401533e-05,        +1.058716240e+04,        +3.211546382e-05,        +3.113764775e+04,        +2.708280141e-07,        +3.692380212e+06
 6.600000000e+00,        +9.444812757e-05,        +1.058782239e+04,        +3.210774300e-05,        +3.114513530e+04,        +2.708684310e-07,        +3.691829263e+06
 6.700000000e+00,        +9.444200874e-05,        +1.058850837e+04,        +3.209978298e-05,        +3.115285859e+04,        +2.709089398e-07,        +3.691277226e+06
 6.800000000e+00,        +9.443566116e-05,        +1.058922009e+04,        +3.209158744e-05,        +3.116081440e+04,        +2.709495245e-07,        +3.690724322e+06
 6.900000000e+00,        +9.442908761e-05,        +1.058995724e+04,        +3.208316060e-05,        +3.116899898e+04,        +2.709901681e-07,        +3.690170780e+06
 7.000000000e+00,        +9.442229133e-05,        +1.059071948e+04,        +3.207450726e-05,        +3.117740802e+04,        +2.710308535e-07,        +3.689616836e+06
 7.100000000e+00,        +9.441527611e-05,        +1.059150639e+04,        +3.206563280e-05,        +3.118603666e+04,        +2.710715627e-07,        +3.689062733e+06
 7.200000000e+00,        +9.440804619e-05,        +1.059231750e+04,        +3.205654320e-05,        +3.119487943e+04,        +2.711122776e-07,        +3.688508720e+06
 7.300000000e+00,        +9.440060637e-05,        +1.059315230e+04,        +3.204724503e-05,        +3.120393029e+04,        +2.711529794e-07,        +3.687955051e+06
 7.400000000e+00,        +9.439296196e-05,        +1.059401018e+04,        +3.203774550e-05,        +3.121318259e+04,        +2.711936490e-07,        +3.687401987e+06
 7.500000000e+00,        +9.438511884e-05,        +1.059489051e+04,        +3.202805242e-05,        +3.122262905e+04,        +2.712342669e-07,        +3.686849790e+06
 7.600000000e+00,        +9.437708340e-05,        +1.059579258e+04,        +3.201817424e-05,        +3.123226179e+04,        +2.712748135e-07,        +3.686298728e+06
 7.700000000e+00,        +9.436886259e-05,        +1.059671562e+04,        +3.200812002e-05,        +3.124207230e+04,        +2.713152688e-07,        +3.685749072e+06
 7.800000000e+00,        +9.436046391e-05,        +1.059765879e+04,        +3.199789947e-05,        +3.125205143e+04,        +2.713556124e-07,        +3.685201095e+06
 7.900000000e+00,        +9.435189539e-05,        +1.059862121e+04,        +3.198752290e-05,        +3.126218942e+04,        +2.713958242e-07,        +3.684655072e+06
 8.000000000e+00,        +9.434316561e-05,        +1.059960193e+04,        +3.197700123e-05,        +3.127247589e+04,        +2.714358835e-07,        +3.684111279e+06
 8.100000000e+00,        +9.433428367e-05,        +1.060059992e+04,        +3.196634599e-05,        +3.128289985e+04,        +2.714757699e-07,        +3.683569993e+06
 8.200000000e+00,        +9.432525921e-05,        +1.060161412e+04,        +3.195556930e-05,        +3.129344969e+04,        +2.715154628e-07,        +3.683031491e+06
 8.300000000e+00,        +9.431610235e-05,        +1.060264340e+04,        +3.194468384e-05,        +3.130411323e+04,        +2.715549418e-07,        +3.682496049e+06
 8.400000000e+00,        +9.430682372e-05,        +1.060368657e+04,        +3.193370286e-05,        +3.131487771e+04,        +2.715941862e-07,        +3.681963941e+06
 8.500000000e+00,        +9.429743439e-05,        +1.060474239e+04,        +3.192264012e-05,        +3.132572984e+04,        +2.716331758e-07,        +3.681435439e+06
 8.600000000e+00,        +9.428794592e-05,        +1.060580958e+04,        +3.191150987e-05,        +3.133665577e+04,        +2.716718905e-07,        +3.680910815e+06
 8.700000000e+00,        +9.427837026e-05,        +1.060688679e+04,        +3.190032687e-05,        +3.134764117e+04,        +2.717103103e-07,        +3.680390335e+06
 8.800000000e+00,        +9.426871975e-05,        +1.060797264e+04,        +3.188910628e-05,        +3.135867124e+04,        +2.717484155e-07,        +3.679874263e+06
 8.900000000e+00,        +9.425900713e-05,        +1.060906571e+04,        +3.187786370e-05,        +3.136973072e+04,        +2.717861867e-07,        +3.679362856e+06
 9.000000000e+00,        +9.424924543e-05,        +1.061016452e+04,        +3.186661506e-05,        +3.138080396e+04,        +2.718236048e-07,        +3.678856370e+06
 9.100000000e+00,        +9.423944801e-05,        +1.061126759e+04,        +3.185537664e-05,        +3.139187496e+04,        +2.718606511e-07,        +3.678355054e+06
 9.200000000e+00,        +9.422962847e-05,        +1.061237337e+04,        +3.184416500e-05,        +3.140292735e+04,        +2.718973074e-07,        +3.677859150e+06
 9.300000000e+00,        +9.421980063e-05,        +1.061348032e+04,        +3.183299695e-05,        +3.141394452e+04,        +2.719335558e-07,        +3.677368897e+06
 9.400000000e+00,        +9.420997850e-05,        +1.061458686e+04,        +3.182188948e-05,        +3.142490959e+04,        +2.719693787e-07,        +3.676884526e+06
 9.500000000e+00,        +9.420017622e-05,        +1.061569139e+04,        +3.181085974e-05,        +3.143580551e+04,        +2.720047594e-07,        +3.676406260e+06
 9.600000000e+00,        +9.419040803e-05,        +1.061679231e+04,        +3.179992497e-05,        +3.144661508e+04,        +2.720396813e-07,        +3.675934317e+06
 9.700000000e+00,        +9.418068821e-05,        +1.061788801e+04,        +3.178910247e-05,        +3.145732098e+04,        +2.720741285e-07,        +3.675468909e+06
 9.800000000e+00,        +9.417103107e-05,        +1.061897686e+04,        +3.177840952e-05,        +3.146790589e+04,        +2.721080856e-07,        +3.675010237e+06
 9.900000000e+00,        +9.416145085e-05,        +1.062005726e+04,        +3.176786337e-05,        +3.147835245e+04,        +2.721415377e-07,        +3.674558498e+06
 1.000000000e+01,        +9.415196171e-05,        +1.062112761e+04,        +3.175748117e-05,        +3.148864340e+04,        +2.721744706e-07,        +3.674113880e+06
 1.010000000e+01,        +9.414257770e-05,        +1.062218631e+04,        +3.174727990e-05,        +3.149876157e+04,        +2.722068703e-07,        +3.673676564e+06
 1.020000000e+01,        +9.413331267e-05,        +1.062323179e+04,        +3.173727635e-05,        +3.150868994e+04,        +2.722387238e-07,        +3.673246723e+06
 1.030000000e+01,        +9.412418026e-05,        +1.062426251e+04,        +3.172748707e-05,        +3.151841171e+04,        +2.722700181e-07,        +3.672824525e+06
 1.040000000e+01,        +9.411519385e-05,        +1.062527695e+04,        +3.171792829e-05,        +3.152791037e+04,        +2.723007413e-07,        +3.672410127e+06
 1.050000000e+01,        +9.410636652e-05,        +1.062627362e+04,        +3.170861592e-05,        +3.153716966e+04,        +2.723308815e-07,        +3.672003683e+06
 1.060000000e+01,        +9.409771099e-05,        +1.062725107e+04,        +3.169956547e-05,        +3.154617374e+04,        +2.723604277e-07,        +3.671605337e+06
 1.070000000e+01,        +9.408923962e-05,        +1.062820790e+04,        +3.169079205e-05,        +3.155490713e+04,        +2.723893692e-07,        +3.671215228e+06
 1.080000000e+01,        +9.408096434e-05,        +1.062914275e+04,        +3.168231026e-05,        +3.156335482e+04,        +2.724176957e-07,        +3.670833487e+06
 1.090000000e+01,        +9.407289664e-05,        +1.063005431e+04,        +3.167413422e-05,        +3.157150225e+04,        +2.724453977e-07,        +3.670460241e+06
 1.100000000e+01,        +9.406504753e-05,        +1.063094131e+04,        +3.166627753e-05,        +3.157933544e+04,        +2.724724657e-07,        +3.670095610e+06
 1.110000000e+01,        +9.405742750e-05,        +1.063180258e+04,        +3.165875318e-05,        +3.158684091e+04,        +2.724988910e-07,        +3.669739706e+06
 1.120000000e+01,        +9.405004652e-05,        +1.063263695e+04,        +3.165157360e-05,        +3.159400580e+04,        +2.725246651e-07,        +3.669392638e+06
 1.130000000e+01,        +9.404291404e-05,        +1.063344336e+04,        +3.164475058e-05,        +3.160081788e+04,        +2.725497802e-07,        +3.669054509e+06
 1.140000000e+01,        +9.403603889e-05,        +1.063422079e+04,        +3.163829528e-05,        +3.160726553e+04,        +2.725742286e-07,        +3.668725415e+06
 1.150000000e+01,        +9.402942938e-05,        +1.063496829e+04,        +3.163221820e-05,        +3.161333782e+04,        +2.725980032e-07,        +3.668405447e+06
 1.160000000e+01,        +9.402309319e-05,        +1.063568498e+04,        +3.162652914e-05,        +3.161902450e+04,        +2.726210973e-07,        +3.668094692e+06
 1.170000000e+01,        +9.401703744e-05,        +1.063637004e+04,        +3.162123727e-05,        +3.162431601e+04,        +2.726435047e-07,        +3.667793227e+06
 1.180000000e+01,        +9.401126866e-05,        +1.063702271e+04,        +3.161635102e-05,        +3.162920349e+04,        +2.726652195e-07,        +3.667501128e+06
 1.190000000e+01,        +9.400579280e-05,        +1.063764232e+04,        +3.161187817e-05,        +3.163367879e+04,        +2.726862365e-07,        +3.667218459e+06
 1.200000000e+01,        +9.400061524e-05,        +1.063822824e+04,        +3.160782579e-05,        +3.163773449e+04,        +2.727065509e-07,        +3.666945281e+06
 1.210000000e+01,        +9.399574082e-05,        +1.063877992e+04,        +3.160420026e-05,        +3.164136386e+04,        +2.727261587e-07,        +3.666681645e+06
 1.220000000e+01,        +9.399117384e-05,        +1.063929685e+04,        +3.160100733e-05,        +3.164456087e+04,        +2.727450564e-07,        +3.666427591e+06
 1.230000000e+01,        +9.398691811e-05,        +1.063977860e+04,        +3.159825204e-05,        +3.164732020e+04,        +2.727632414e-07,        +3.666183152e+06
 1.240000000e+01,        +9.398297697e-05,        +1.064022478e+04,        +3.159593883e-05,        +3.164963717e+04,        +2.727807120e-07,        +3.665948346e+06
 1.250000000e+01,        +9.397935335e-05,        +1.064063504e+04,        +3.159407151e-05,        +3.165150778e+04,        +2.727974674e-07,        +3.665723181e+06
 1.260000000e+01,        +9.397604978e-05,        +1.064100909e+04,        +3.159265329e-05,        +3.165292864e+04,        +2.728135082e-07,        +3.665507645e+06
 1.270000000e+01,        +9.397306849e-05,        +1.064134668e+04,        +3.159168683e-05,        +3.165389697e+04,        +2.728288360e-07,        +3.665301713e+06
 1.280000000e+01,        +9.397041141e-05,        +1.064164757e+04,        +3.159117426e-05,        +3.165441056e+04,        +2.728434543e-07,        +3.665105335e+06
 1.290000000e+01,        +9.396808028e-05,        +1.064191156e+04,        +3.159111721e-05,        +3.165446772e+04,        +2.728573679e-07,        +3.664918443e+06
 1.300000000e+01,        +9.396607671e-05,        +1.064213847e+04,        +3.159151689e-05,        +3.165406725e+04,        +2.728705839e-07,        +3.664740939e+06
 1.310000000e+01,        +9.396440222e-05,        +1.064232812e+04,        +3.159237406e-05,        +3.165320840e+04,        +2.728831114e-07,        +3.664572698e+06
 1.320000000e+01,        +9.396305836e-05,        +1.064248033e+04,        +3.159368914e-05,        +3.165189084e+04,        +2.728949619e-07,        +3.664413564e+06
 1.330000000e+01,        +9.396204674e-05,        +1.064259491e+04,        +3.159546225e-05,        +3.165011457e+04,        +2.729061497e-07,        +3.664263342e+06
 1.340000000e+01,        +9.396136918e-05,        +1.064267165e+04,        +3.159769321e-05,        +3.164787990e+04,        +2.729166918e-07,        +3.664121799e+06
 1.350000000e+01,        +9.396102770e-05,        +1.064271033e+04,        +3.160038167e-05,        +3.164518740e+04,        +2.729266088e-07,        +3.663988662e+06
 1.360000000e+01,        +9.396102468e-05,        +1.064271067e+04,        +3.160352708e-05,        +3.164203785e+04,        +2.729359242e-07,        +3.663863608e+06
 1.370000000e+01,        +9.396136287e-05,        +1.064267237e+04,        +3.160712879e-05,        +3.163843216e+04,        +2.729446657e-07,        +3.663746267e+06
