        f (GHz),                  p_surf[1],                  Q_surf[1],                  p_surf[2],                  Q_surf[2],                  p_surf[3],                  Q_surf[3]
 2.00000000e+00,        +9.484656279336e-05,        +1.054334464580e+04,        +3.105876447551e-05,        +3.219703091501e+04,        +2.817473138502e-07,        +3.549279623413e+06
 2.10000000e+00,        +9.485044674513e-05,        +1.054291291518e+04,        +3.105934149718e-05,        +3.219643275731e+04,        +2.817769282909e-07,        +3.548906598087e+06
 2.20000000e+00,        +9.485429585378e-05,        +1.054248509252e+04,        +3.105981907951e-05,        +3.219593769816e+04,        +2.818066461303e-07,        +3.548532349154e+06
 2.30000000e+00,        +9.485810292440e-05,        +1.054206197648e+04,        +3.106019965344e-05,        +3.219554320828e+04,        +2.818364914391e-07,        +3.548156574381e+06
 2.40000000e+00,        +9.486186167900e-05,        +1.054164426357e+04,        +3.106048609214e-05,        +3.219524630212e+04,        +2.818664925252e-07,        +3.547778918456e+06
 2.50000000e+00,        +9.486556661916e-05,        +1.054123256349e+04,        +3.106068157287e-05,        +3.219504368099e+04,        +2.818966802931e-07,        +3.547398993703e+06
 2.60000000e+00,        +9.486921290723e-05,        +1.054082741234e+04,        +3.106078947181e-05,        +3.219493184189e+04,        +2.819270869553e-07,        +3.547016396330e+06
 2.70000000e+00,        +9.487279626322e-05,        +1.054042928413e+04,        +3.106081328567e-05,        +3.219490715851e+04,        +2.819577450368e-07,        +3.546630718973e+06
 2.80000000e+00,        +9.487631287478e-05,        +1.054003860078e+04,        +3.106075657460e-05,        +3.219496594033e+04,        +2.819886866175e-07,        +3.546241560239e+06
 2.90000000e+00,        +9.487975931837e-05,        +1.053965574095e+04,        +3.106062292143e-05,        +3.219510447455e+04,        +2.820199427657e-07,        +3.545848531821e+06
 3.00000000e+00,        +9.488313248982e-05,        +1.053928104774e+04,        +3.106041590367e-05,        +3.219531905501e+04,        +2.820515431219e-07,        +3.545451263735e+06
 3.10000000e+00,        +9.488642954307e-05,        +1.053891483551e+04,        +3.106013907477e-05,        +3.219560600140e+04,        +2.820835155998e-07,        +3.545049408058e+06
 3.20000000e+00,        +9.488964783602e-05,        +1.053855739594e+04,        +3.105979595243e-05,        +3.219596167121e+04,        +2.821158861765e-07,        +3.544642641550e+06
 3.30000000e+00,        +9.489278488275e-05,        +1.053820900330e+04,        +3.105939001181e-05,        +3.219638246662e+04,        +2.821486787506e-07,        +3.544230667421e+06
 3.40000000e+00,        +9.489583831139e-05,        +1.053786991921e+04,        +3.105892468227e-05,        +3.219686483772e+04,        +2.821819150500e-07,        +3.543813216459e+06
 3.50000000e+00,        +9.489880582716e-05,        +1.053754039668e+04,        +3.105840334651e-05,        +3.219740528330e+04,        +2.822156145764e-07,        +3.543390047716e+06
 3.60000000e+00,        +9.490168518019e-05,        +1.053722068371e+04,        +3.105782934119e-05,        +3.219800035007e+04,        +2.822497945744e-07,        +3.542960948858e+06
 3.70000000e+00,        +9.490447413760e-05,        +1.053691102645e+04,        +3.105720595852e-05,        +3.219864663085e+04,        +2.822844700179e-07,        +3.542525736313e+06
 3.80000000e+00,        +9.490717045970e-05,        +1.053661167177e+04,        +3.105653644840e-05,        +3.219934076233e+04,        +2.823196536083e-07,        +3.542084255273e+06
 3.90000000e+00,        +9.490977187983e-05,        +1.053632286954e+04,        +3.105582402064e-05,        +3.220007942263e+04,        +2.823553557770e-07,        +3.541636379618e+06
 4.00000000e+00,        +9.491227608765e-05,        +1.053604487450e+04,        +3.105507184723e-05,        +3.220085932885e+04,        +2.823915846925e-07,        +3.541182011812e+06
 4.10000000e+00,        +9.491468071559e-05,        +1.053577794774e+04,        +3.105428306444e-05,        +3.220167723482e+04,        +2.824283462659e-07,        +3.540721082785e+06
 4.20000000e+00,        +9.491698332819e-05,        +1.053552235791e+04,        +3.105346077462e-05,        +3.220252992920e+04,        +2.824656441568e-07,        +3.540253551843e+06
 4.30000000e+00,        +9.491918141419e-05,        +1.053527838210e+04,        +3.105260804769e-05,        +3.220341423382e+04,        +2.825034797747e-07,        +3.539779406602e+06
 4.40000000e+00,        +9.492127238099e-05,        +1.053504630644e+04,        +3.105172792224e-05,        +3.220432700248e+04,        +2.825418522783e-07,        +3.539298662964e+06
 4.50000000e+00,        +9.492325355146e-05,        +1.053482642647e+04,        +3.105082340632e-05,        +3.220526512016e+04,        +2.825807585706e-07,        +3.538811365142e+06
 4.60000000e+00,        +9.492512216275e-05,        +1.053461904727e+04,        +3.104989747774e-05,        +3.220622550258e+04,        +2.826201932907e-07,        +3.538317585720e+06
 4.70000000e+00,        +9.492687536709e-05,        +1.053442448340e+04,        +3.104895308400e-05,        +3.220720509624e+04,        +2.826601488019e-07,        +3.537817425762e+06
 4.80000000e+00,        +9.492851023423e-05,        +1.053424305862e+04,        +3.104799314188e-05,        +3.220820087889e+04,        +2.827006151766e-07,        +3.537311014959e+06
 4.90000000e+00,        +9.493002375559e-05,        +1.053407510541e+04,        +3.104702053655e-05,        +3.220920986034e+04,        +2.827415801782e-07,        +3.536798511807e+06
 5.00000000e+00,        +9.493141284977e-05,        +1.053392096442e+04,        +3.104603812036e-05,        +3.221022908376e+04,        +2.827830292413e-07,        +3.536280103807e+06
 5.10000000e+00,        +9.493267436950e-05,        +1.053378098364e+04,        +3.104504871121e-05,        +3.221125562734e+04,        +2.828249454498e-07,        +3.535756007695e+06
 5.20000000e+00,        +9.493380510979e-05,        +1.053365551758e+04,        +3.104405509053e-05,        +3.221228660637e+04,        +2.828673095142e-07,        +3.535226469673e+06
 5.30000000e+00,        +9.493480181720e-05,        +1.053354492619e+04,        +3.104306000095e-05,        +3.221331917567e+04,        +2.829100997487e-07,        +3.534691765647e+06
 5.40000000e+00,        +9.493566120016e-05,        +1.053344957372e+04,        +3.104206614357e-05,        +3.221435053244e+04,        +2.829532920478e-07,        +3.534152201456e+06
 5.50000000e+00,        +9.493637994030e-05,        +1.053336982755e+04,        +3.104107617485e-05,        +3.221537791947e+04,        +2.829968598656e-07,        +3.533608113090e+06
 5.60000000e+00,        +9.493695470461e-05,        +1.053330605676e+04,        +3.104009270323e-05,        +3.221639862873e+04,        +2.830407741954e-07,        +3.533059866878e+06
 5.70000000e+00,        +9.493738215839e-05,        +1.053325863074e+04,        +3.103911828537e-05,        +3.221741000522e+04,        +2.830850035529e-07,        +3.532507859652e+06
 5.80000000e+00,        +9.493765897897e-05,        +1.053322791772e+04,        +3.103815542204e-05,        +3.221840945128e+04,        +2.831295139619e-07,        +3.531952518855e+06
 5.90000000e+00,        +9.493778187007e-05,        +1.053321428310e+04,        +3.103720655384e-05,        +3.221939443117e+04,        +2.831742689451e-07,        +3.531394302615e+06
 6.00000000e+00,        +9.493774757678e-05,        +1.053321808790e+04,        +3.103627405645e-05,        +3.222036247589e+04,        +2.832192295190e-07,        +3.530833699740e+06
 6.10000000e+00,        +9.493755290098e-05,        +1.053323968697e+04,        +3.103536023575e-05,        +3.222131118839e+04,        +2.832643541940e-07,        +3.530271229662e+06
 6.20000000e+00,        +9.493719471729e-05,        +1.053327942729e+04,        +3.103446732266e-05,        +3.222223824895e+04,        +2.833095989821e-07,        +3.529707442293e+06
 6.30000000e+00,        +9.493666998935e-05,        +1.053333764616e+04,        +3.103359746770e-05,        +3.222314142086e+04,        +2.833549174100e-07,        +3.529142917795e+06
 6.40000000e+00,        +9.493597578641e-05,        +1.053341466937e+04,        +3.103275273544e-05,        +3.222401855630e+04,        +2.834002605409e-07,        +3.528578266271e+06
 6.50000000e+00,        +9.493510930016e-05,        +1.053351080935e+04,        +3.103193509871e-05,        +3.222486760232e+04,        +2.834455770038e-07,        +3.528014127335e+06
 6.60000000e+00,        +9.493406786163e-05,        +1.053362636327e+04,        +3.103114643271e-05,        +3.222568660711e+04,        +2.834908130322e-07,        +3.527451169596e+06
 6.70000000e+00,        +9.493284895827e-05,        +1.053376161122e+04,        +3.103038850900e-05,        +3.222647372623e+04,        +2.835359125117e-07,        +3.526890090012e+06
 6.80000000e+00,        +9.493145025086e-05,        +1.053391681426e+04,        +3.102966298942e-05,        +3.222722722902e+04,        +2.835808170374e-07,        +3.526331613143e+06
 6.90000000e+00,        +9.492986959038e-05,        +1.053409221265e+04,        +3.102897142003e-05,        +3.222794550497e+04,        +2.836254659823e-07,        +3.525776490261e+06
 7.00000000e+00,        +9.492810503464e-05,        +1.053428802392e+04,        +3.102831522494e-05,        +3.222862707016e+04,        +2.836697965753e-07,        +3.525225498354e+06
 7.10000000e+00,        +9.492615486462e-05,        +1.053450444112e+04,        +3.102769570036e-05,        +3.222927057352e+04,        +2.837137439907e-07,        +3.524679438980e+06
 7.20000000e+00,        +9.492401760032e-05,        +1.053474163104e+04,        +3.102711400863e-05,        +3.222987480311e+04,        +2.837572414490e-07,        +3.524139137008e+06
 7.30000000e+00,        +9.492169201615e-05,        +1.053499973251e+04,        +3.102657117240e-05,        +3.223043869216e+04,        +2.838002203290e-07,        +3.523605439209e+06
 7.40000000e+00,        +9.491917715571e-05,        +1.053527885476e+04,        +3.102606806910e-05,        +3.223096132493e+04,        +2.838426102906e-07,        +3.523079212723e+06
 7.50000000e+00,        +9.491647234575e-05,        +1.053557907586e+04,        +3.102560542557e-05,        +3.223144194234e+04,        +2.838843394098e-07,        +3.522561343394e+06
 7.60000000e+00,        +9.491357720940e-05,        +1.053590044124e+04,        +3.102518381296e-05,        +3.223187994723e+04,        +2.839253343245e-07,        +3.522052733967e+06
 7.70000000e+00,        +9.491049167839e-05,        +1.053624296235e+04,        +3.102480364210e-05,        +3.223227490933e+04,        +2.839655203913e-07,        +3.521554302164e+06
 7.80000000e+00,        +9.490721600425e-05,        +1.053660661540e+04,        +3.102446515914e-05,        +3.223262656973e+04,        +2.840048218529e-07,        +3.521066978638e+06
 7.90000000e+00,        +9.490375076832e-05,        +1.053699134022e+04,        +3.102416844166e-05,        +3.223293484499e+04,        +2.840431620159e-07,        +3.520591704805e+06
 8.00000000e+00,        +9.490009689060e-05,        +1.053739703925e+04,        +3.102391339533e-05,        +3.223319983064e+04,        +2.840804634383e-07,        +3.520129430573e+06
 8.10000000e+00,        +9.489625563718e-05,        +1.053782357676e+04,        +3.102369975103e-05,        +3.223342180414e+04,        +2.841166481254e-07,        +3.519681111959e+06
 8.20000000e+00,        +9.489222862629e-05,        +1.053827077809e+04,        +3.102352706260e-05,        +3.223360122730e+04,        +2.841516377349e-07,        +3.519247708623e+06
 8.30000000e+00,        +9.488801783285e-05,        +1.053873842914e+04,        +3.102339470516e-05,        +3.223373874793e+04,        +2.841853537889e-07,        +3.518830181314e+06
 8.40000000e+00,        +9.488362559143e-05,        +1.053922627605e+04,        +3.102330187416e-05,        +3.223383520092e+04,        +2.842177178925e-07,        +3.518429489249e+06
 8.50000000e+00,        +9.487905459760e-05,        +1.053973402498e+04,        +3.102324758504e-05,        +3.223389160850e+04,        +2.842486519577e-07,        +3.518046587426e+06
 8.60000000e+00,        +9.487430790757e-05,        +1.054026134213e+04,        +3.102323067369e-05,        +3.223390917981e+04,        +2.842780784318e-07,        +3.517682423902e+06
 8.70000000e+00,        +9.486938893617e-05,        +1.054080785397e+04,        +3.102324979759e-05,        +3.223388930962e+04,        +2.843059205292e-07,        +3.517337937031e+06
 8.80000000e+00,        +9.486430145297e-05,        +1.054137314758e+04,        +3.102330343772e-05,        +3.223383357635e+04,        +2.843321024647e-07,        +3.517014052693e+06
 8.90000000e+00,        +9.485904957678e-05,        +1.054195677125e+04,        +3.102338990133e-05,        +3.223374373917e+04,        +2.843565496876e-07,        +3.516711681509e+06
 9.00000000e+00,        +9.485363776830e-05,        +1.054255823528e+04,        +3.102350732539e-05,        +3.223362173436e+04,        +2.843791891150e-07,        +3.516431716090e+06
 9.10000000e+00,        +9.484807082107e-05,        +1.054317701291e+04,        +3.102365368090e-05,        +3.223346967078e+04,        +2.843999493632e-07,        +3.516175028297e+06
 9.20000000e+00,        +9.484235385069e-05,        +1.054381254154e+04,        +3.102382677796e-05,        +3.223328982453e+04,        +2.844187609755e-07,        +3.515942466560e+06
 9.30000000e+00,        +9.483649228239e-05,        +1.054446422399e+04,        +3.102402427162e-05,        +3.223308463289e+04,        +2.844355566446e-07,        +3.515734853253e+06
 9.40000000e+00,        +9.483049183701e-05,        +1.054513143008e+04,        +3.102424366852e-05,        +3.223285668732e+04,        +2.844502714302e-07,        +3.515552982151e+06
 9.50000000e+00,        +9.482435851546e-05,        +1.054581349830e+04,        +3.102448233424e-05,        +3.223260872580e+04,        +2.844628429671e-07,        +3.515397615975e+06
 9.60000000e+00,        +9.481809858174e-05,        +1.054650973767e+04,        +3.102473750134e-05,        +3.223234362440e+04,        +2.844732116660e-07,        +3.515269484052e+06
 9.70000000e+00,        +9.481171854466e-05,        +1.054721942973e+04,        +3.102500627814e-05,        +3.223206438816e+04,        +2.844813209036e-07,        +3.515169280091e+06
 9.80000000e+00,        +9.480522513836e-05,        +1.054794183064e+04,        +3.102528565812e-05,        +3.223177414124e+04,        +2.844871172010e-07,        +3.515097660093e+06
 9.90000000e+00,        +9.479862530178e-05,        +1.054867617349e+04,        +3.102557252984e-05,        +3.223147611662e+04,        +2.844905503906e-07,        +3.515055240418e+06
 1.00000000e+01,        +9.479192615724e-05,        +1.054942167059e+04,        +3.102586368752e-05,        +3.223117364504e+04,        +2.844915737690e-07,        +3.515042595996e+06
 1.01000000e+01,        +9.478513498827e-05,        +1.055017751596e+04,        +3.102615584204e-05,        +3.223087014360e+04,        +2.844901442361e-07,        +3.515060258713e+06
 1.02000000e+01,        +9.477825921688e-05,        +1.055094288777e+04,        +3.102644563236e-05,        +3.223056910383e+04,        +2.844862224192e-07,        +3.515108715973e+06
 1.03000000e+01,        +9.477130638049e-05,        +1.055171695096e+04,        +3.102672963737e-05,        +3.223027407941e+04,        +2.844797727813e-07,        +3.515188409437e+06
 1.04000000e+01,        +9.476428410866e-05,        +1.055249885973e+04,        +3.102700438797e-05,        +3.222998867360e+04,        +2.844707637139e-07,        +3.515299733950e+06
 1.05000000e+01,        +9.475720009982e-05,        +1.055328776016e+04,        +3.102726637947e-05,        +3.222971652641e+04,        +2.844591676131e-07,        +3.515443036662e+06
 1.06000000e+01,        +9.475006209838e-05,        +1.055408279270e+04,        +3.102751208410e-05,        +3.222946130161e+04,        +2.844449609395e-07,        +3.515618616330e+06
 1.07000000e+01,        +9.474287787215e-05,        +1.055488309474e+04,        +3.102773796363e-05,        +3.222922667364e+04,        +2.844281242613e-07,        +3.515826722822e+06
 1.08000000e+01,        +9.473565519061e-05,        +1.055568780295e+04,        +3.102794048202e-05,        +3.222901631449e+04,        +2.844086422817e-07,        +3.516067556799e+06
 1.09000000e+01,        +9.472840180400e-05,        +1.055649605563e+04,        +3.102811611806e-05,        +3.222883388070e+04,        +2.843865038497e-07,        +3.516341269586e+06
 1.10000000e+01,        +9.472112542370e-05,        +1.055730699490e+04,        +3.102826137783e-05,        +3.222868300042e+04,        +2.843617019556e-07,        +3.516647963220e+06
 1.11000000e+01,        +9.471383370394e-05,        +1.055811976871e+04,        +3.102837280703e-05,        +3.222856726065e+04,        +2.843342337120e-07,        +3.516987690666e+06
 1.12000000e+01,        +9.470653422524e-05,        +1.055893353274e+04,        +3.102844700304e-05,        +3.222849019489e+04,        +2.843041003200e-07,        +3.517360456196e+06
 1.13000000e+01,        +9.469923447972e-05,        +1.055974745196e+04,        +3.102848062658e-05,        +3.222845527097e+04,        +2.842713070234e-07,        +3.517766215912e+06
 1.14000000e+01,        +9.469194185860e-05,        +1.056056070213e+04,        +3.102847041313e-05,        +3.222846587942e+04,        +2.842358630496e-07,        +3.518204878409e+06
 1.15000000e+01,        +9.468466364211e-05,        +1.056137247083e+04,        +3.102841318367e-05,        +3.222852532228e+04,        +2.841977815411e-07,        +3.518676305556e+06
 1.16000000e+01,        +9.467740699199e-05,        +1.056218195841e+04,        +3.102830585508e-05,        +3.222863680250e+04,        +2.841570794764e-07,        +3.519180313376e+06
 1.17000000e+01,        +9.467017894698e-05,        +1.056298837842e+04,        +3.102814544981e-05,        +3.222880341390e+04,        +2.841137775845e-07,        +3.519716673023e+06
 1.18000000e+01,        +9.466298642129e-05,        +1.056379095785e+04,        +3.102792910496e-05,        +3.222902813196e+04,        +2.840679002518e-07,        +3.520285111811e+06
 1.19000000e+01,        +9.465583620653e-05,        +1.056458893689e+04,        +3.102765408052e-05,        +3.222931380519e+04,        +2.840194754256e-07,        +3.520885314295e+06
 1.20000000e+01,        +9.464873497708e-05,        +1.056538156841e+04,        +3.102731776695e-05,        +3.222966314753e+04,        +2.839685345149e-07,        +3.521516923375e+06
 1.21000000e+01,        +9.464168929918e-05,        +1.056616811687e+04,        +3.102691769177e-05,        +3.223007873145e+04,        +2.839151122903e-07,        +3.522179541389e+06
 1.22000000e+01,        +9.463470564399e-05,        +1.056694785697e+04,        +3.102645152530e-05,        +3.223056298219e+04,        +2.838592467861e-07,        +3.522872731194e+06
 1.23000000e+01,        +9.462779040445e-05,        +1.056772007172e+04,        +3.102591708539e-05,        +3.223111817284e+04,        +2.838009792056e-07,        +3.523596017178e+06
 1.24000000e+01,        +9.462094991638e-05,        +1.056848405014e+04,        +3.102531234110e-05,        +3.223174642065e+04,        +2.837403538322e-07,        +3.524348886206e+06
 1.25000000e+01,        +9.461419048351e-05,        +1.056923908443e+04,        +3.102463541531e-05,        +3.223244968438e+04,        +2.836774179489e-07,        +3.525130788451e+06
 1.26000000e+01,        +9.460751840660e-05,        +1.056998446680e+04,        +3.102388458618e-05,        +3.223322976277e+04,        +2.836122217683e-07,        +3.525941138098e+06
