        f (GHz),          Re{Φ_elec[1]} (C),          Im{Φ_elec[1]} (C),               Φ_pow[2] (W)
 2.00000000e+00,        +1.072244479299e-12,        -3.189214463319e-13,        +2.574560742355e-06
 2.10000000e+00,        +1.064557205769e-12,        -3.327744054319e-13,        +2.835406642152e-06
 2.20000000e+00,        +1.056603932894e-12,        -3.463640065521e-13,        +3.107365394472e-06
 2.30000000e+00,        +1.048396119279e-12,        -3.596846420723e-13,        +3.390632003929e-06
 2.40000000e+00,        +1.039945292925e-12,        -3.727312779208e-13,        +3.685338142409e-06
 2.50000000e+00,        +1.031263013520e-12,        -3.854994526425e-13,        +3.991553236063e-06
 2.60000000e+00,        +1.022360835180e-12,        -3.979852708701e-13,        +4.309288255425e-06
 2.70000000e+00,        +1.013250270885e-12,        -4.101853919253e-13,        +4.638501347513e-06
 2.80000000e+00,        +1.003942759459e-12,        -4.220970144172e-13,        +4.979104592679e-06
 2.90000000e+00,        +9.944496356063e-13,        -4.337178577470e-13,        +5.330971312447e-06
 3.00000000e+00,        +9.847821032511e-13,        -4.450461413781e-13,        +5.693943487947e-06
 3.10000000e+00,        +9.749512122118e-13,        -4.560805626433e-13,        +6.067838966001e-06
 3.20000000e+00,        +9.649678380825e-13,        -4.668202737444e-13,        +6.452458229276e-06
 3.30000000e+00,        +9.548426651021e-13,        -4.772648584729e-13,        +6.847590587868e-06
 3.40000000e+00,        +9.445861717290e-13,        -4.874143090636e-13,        +7.253019713448e-06
 3.50000000e+00,        +9.342086186135e-13,        -4.972690034812e-13,        +7.668528485564e-06
 3.60000000e+00,        +9.237200386600e-13,        -5.068296833454e-13,        +8.093903155096e-06
 3.70000000e+00,        +9.131302288872e-13,        -5.160974326263e-13,        +8.528936854473e-06
 3.80000000e+00,        +9.024487438195e-13,        -5.250736571748e-13,        +8.973432500365e-06
 3.90000000e+00,        +8.916848901754e-13,        -5.337600651120e-13,        +9.427205143777e-06
 4.00000000e+00,        +8.808477226523e-13,        -5.421586480644e-13,        +9.890083826941e-06
 4.10000000e+00,        +8.699460406397e-13,        -5.502716632121e-13,        +1.036191300697e-05
 4.20000000e+00,        +8.589883857245e-13,        -5.581016161021e-13,        +1.084255360440e-05
 4.30000000e+00,        +8.479830398794e-13,        -5.656512441745e-13,        +1.133188373127e-05
 4.40000000e+00,        +8.369380242476e-13,        -5.729235009456e-13,        +1.182979914879e-05
 4.50000000e+00,        +8.258610984591e-13,        -5.799215407969e-13,        +1.233621349964e-05
 4.60000000e+00,        +8.147597604280e-13,        -5.866487043202e-13,        +1.285105835478e-05
 4.70000000e+00,        +8.036412465940e-13,        -5.931085041794e-13,        +1.337428310968e-05
 4.80000000e+00,        +7.925125325788e-13,        -5.993046114515e-13,        +1.390585475976e-05
 4.90000000e+00,        +7.813803342381e-13,        -6.052408424199e-13,        +1.444575758089e-05
 5.00000000e+00,        +7.702511090908e-13,        -6.109211457970e-13,        +1.499399273616e-05
 5.10000000e+00,        +7.591310581132e-13,        -6.163495903593e-13,        +1.555057782719e-05
 5.20000000e+00,        +7.480261278857e-13,        -6.215303529846e-13,        +1.611554640441e-05
 5.30000000e+00,        +7.369420130791e-13,        -6.264677070831e-13,        +1.668894744860e-05
 5.40000000e+00,        +7.258841592713e-13,        -6.311660114191e-13,        +1.727084483308e-05
 5.50000000e+00,        +7.148577660789e-13,        -6.356296993219e-13,        +1.786131677416e-05
 5.60000000e+00,        +7.038677905921e-13,        -6.398632682861e-13,        +1.846045527566e-05
 5.70000000e+00,        +6.929189510962e-13,        -6.438712699638e-13,        +1.906836557176e-05
 5.80000000e+00,        +6.820157310650e-13,        -6.476583005512e-13,        +1.968516557126e-05
 5.90000000e+00,        +6.711623834080e-13,        -6.512289915714e-13,        +2.031098530512e-05
 6.00000000e+00,        +6.603629349522e-13,        -6.545880010565e-13,        +2.094596637856e-05
 6.10000000e+00,        +6.496211911408e-13,        -6.577400051307e-13,        +2.159026142789e-05
 6.20000000e+00,        +6.389407409264e-13,        -6.606896899956e-13,        +2.224403358192e-05
 6.30000000e+00,        +6.283249618410e-13,        -6.634417443162e-13,        +2.290745592700e-05
 6.40000000e+00,        +6.177770252190e-13,        -6.660008520093e-13,        +2.358071097466e-05
 6.50000000e+00,        +6.072999015541e-13,        -6.683716854292e-13,        +2.426399013004e-05
 6.60000000e+00,        +5.968963659689e-13,        -6.705588989480e-13,        +2.495749315924e-05
 6.70000000e+00,        +5.865690037765e-13,        -6.725671229272e-13,        +2.566142765348e-05
 6.80000000e+00,        +5.763202161144e-13,        -6.744009580719e-13,        +2.637600848739e-05
 6.90000000e+00,        +5.661522256303e-13,        -6.760649701628e-13,        +2.710145726909e-05
 7.00000000e+00,        +5.560670822032e-13,        -6.775636851568e-13,        +2.783800177888e-05
 7.10000000e+00,        +5.460666686795e-13,        -6.789015846473e-13,        +2.858587539378e-05
 7.20000000e+00,        +5.361527066092e-13,        -6.800831016740e-13,        +2.934531649457e-05
 7.30000000e+00,        +5.263267619651e-13,        -6.811126168715e-13,        +3.011656785212e-05
 7.40000000e+00,        +5.165902508307e-13,        -6.819944549462e-13,        +3.089987598937e-05
 7.50000000e+00,        +5.069444450426e-13,        -6.827328814676e-13,        +3.169549051546e-05
 7.60000000e+00,        +4.973904777755e-13,        -6.833320999634e-13,        +3.250366342815e-05
 7.70000000e+00,        +4.879293490570e-13,        -6.837962493050e-13,        +3.332464838065e-05
 7.80000000e+00,        +4.785619312028e-13,        -6.841294013697e-13,        +3.415869990873e-05
 7.90000000e+00,        +4.692889741618e-13,        -6.843355589675e-13,        +3.500607261393e-05
 8.00000000e+00,        +4.601111107643e-13,        -6.844186540182e-13,        +3.586702029847e-05
 8.10000000e+00,        +4.510288618640e-13,        -6.843825459670e-13,        +3.674179504731e-05
 8.20000000e+00,        +4.420426413687e-13,        -6.842310204224e-13,        +3.763064625271e-05
 8.30000000e+00,        +4.331527611543e-13,        -6.839677880078e-13,        +3.853381957640e-05
 8.40000000e+00,        +4.243594358572e-13,        -6.835964834086e-13,        +3.945155584432e-05
 8.50000000e+00,        +4.156627875408e-13,        -6.831206646072e-13,        +4.038408986882e-05
 8.60000000e+00,        +4.070628502353e-13,        -6.825438122894e-13,        +4.133164919293e-05
 8.70000000e+00,        +3.985595743469e-13,        -6.818693294129e-13,        +4.229445275117e-05
 8.80000000e+00,        +3.901528309353e-13,        -6.811005409246e-13,        +4.327270944129e-05
 8.90000000e+00,        +3.818424158598e-13,        -6.802406936162e-13,        +4.426661660109e-05
 9.00000000e+00,        +3.736280537938e-13,        -6.792929561067e-13,        +4.527635838442e-05
 9.10000000e+00,        +3.655094021067e-13,        -6.782604189421e-13,        +4.630210403014e-05
 9.20000000e+00,        +3.574860546170e-13,        -6.771460948010e-13,        +4.734400601800e-05
 9.30000000e+00,        +3.495575452156e-13,        -6.759529187978e-13,        +4.840219810510e-05
 9.40000000e+00,        +3.417233513626e-13,        -6.746837488742e-13,        +4.947679323646e-05
 9.50000000e+00,        +3.339828974609e-13,        -6.733413662699e-13,        +5.056788132358e-05
 9.60000000e+00,        +3.263355581070e-13,        -6.719284760652e-13,        +5.167552688433e-05
 9.70000000e+00,        +3.187806612242e-13,        -6.704477077870e-13,        +5.279976653820e-05
 9.80000000e+00,        +3.113174910815e-13,        -6.689016160722e-13,        +5.394060635054e-05
 9.90000000e+00,        +3.039452911999e-13,        -6.672926813819e-13,        +5.509801902010e-05
 1.00000000e+01,        +2.966632671526e-13,        -6.656233107591e-13,        +5.627194090422e-05
 1.01000000e+01,        +2.894705892614e-13,        -6.638958386264e-13,        +5.746226887666e-05
 1.02000000e+01,        +2.823663951939e-13,        -6.621125276168e-13,        +5.866885701376e-05
 1.03000000e+01,        +2.753497924661e-13,        -6.602755694345e-13,        +5.989151310515e-05
 1.04000000e+01,        +2.684198608540e-13,        -6.583870857417e-13,        +6.112999498684e-05
 1.05000000e+01,        +2.615756547200e-13,        -6.564491290662e-13,        +6.238400669526e-05
 1.06000000e+01,        +2.548162052567e-13,        -6.544636837299e-13,        +6.365319444320e-05
 1.07000000e+01,        +2.481405226538e-13,        -6.524326667923e-13,        +6.493714242012e-05
 1.08000000e+01,        +2.415475981921e-13,        -6.503579290104e-13,        +6.623536842237e-05
 1.09000000e+01,        +2.350364062678e-13,        -6.482412558102e-13,        +6.754731932195e-05
 1.10000000e+01,        +2.286059063533e-13,        -6.460843682724e-13,        +6.887236638633e-05
 1.11000000e+01,        +2.222550448959e-13,        -6.438889241281e-13,        +7.020980046657e-05
 1.12000000e+01,        +2.159827571593e-13,        -6.416565187670e-13,        +7.155882707705e-05
 1.13000000e+01,        +2.097879690119e-13,        -6.393886862582e-13,        +7.291856139654e-05
 1.14000000e+01,        +2.036695986631e-13,        -6.370869003826e-13,        +7.428802322889e-05
 1.15000000e+01,        +1.976265583516e-13,        -6.347525756805e-13,        +7.566613197128e-05
 1.16000000e+01,        +1.916577559878e-13,        -6.323870685143e-13,        +7.705170164951e-05
 1.17000000e+01,        +1.857620967516e-13,        -6.299916781487e-13,        +7.844343609324e-05
 1.18000000e+01,        +1.799384846462e-13,        -6.275676478511e-13,        +7.983992433992e-05
 1.19000000e+01,        +1.741858240105e-13,        -6.251161660137e-13,        +8.123963637444e-05
 1.20000000e+01,        +1.685030209872e-13,        -6.226383673008e-13,        +8.264091933245e-05
 1.21000000e+01,        +1.628889849479e-13,        -6.201353338233e-13,        +8.404199431937e-05
 1.22000000e+01,        +1.573426298721e-13,        -6.176080963438e-13,        +8.544095402410e-05
 1.23000000e+01,        +1.518628756783e-13,        -6.150576355143e-13,        +8.683576133687e-05
 1.24000000e+01,        +1.464486495028e-13,        -6.124848831487e-13,        +8.822424921399e-05
 1.25000000e+01,        +1.410988869227e-13,        -6.098907235332e-13,        +8.960412206890e-05
 1.26000000e+01,        +1.358125331165e-13,        -6.072759947734e-13,        +9.097295900776e-05
 1.27000000e+01,        +1.305885439565e-13,        -6.046414901814e-13,        +9.232821926868e-05
 1.28000000e+01,        +1.254258870246e-13,        -6.019879596999e-13,        +9.366725026506e-05
 1.29000000e+01,        +1.203235425441e-13,        -5.993161113620e-13,        +9.498729867392e-05
 1.30000000e+01,        +1.152805042177e-13,        -5.966266127828e-13,        +9.628552504738e-05
 1.31000000e+01,        +1.102957799617e-13,        -5.939200926769e-13,        +9.755902245623e-05
 1.32000000e+01,        +1.053683925271e-13,        -5.911971423935e-13,        +9.880483969568e-05
 1.33000000e+01,        +1.004973799969e-13,        -5.884583174582e-13,        +1.000200095894e-04
 1.34000000e+01,        +9.568179615177e-14,        -5.857041391072e-13,        +1.012015829135e-04
 1.35000000e+01,        +9.092071069492e-14,        -5.829350957971e-13,        +1.023466684203e-04
 1.36000000e+01,        +8.621320933071e-14,        -5.801516446698e-13,        +1.034524793644e-04
 1.37000000e+01,        +8.155839369509e-14,        -5.773542129484e-13,        +1.045163868126e-04
 1.38000000e+01,        +7.695538113826e-14,        -5.745431992366e-13,        +1.055359798441e-04
 1.39000000e+01,        +7.240330436657e-14,        -5.717189746927e-13,        +1.065091325111e-04
 1.40000000e+01,        +6.790131095646e-14,        -5.688818840464e-13,        +1.074340771193e-04
 1.41000000e+01,        +6.344856276100e-14,        -5.660322464243e-13,        +1.083094830022e-04
 1.42000000e+01,        +5.904423523810e-14,        -5.631703559544e-13,        +1.091345394920e-04
 1.43000000e+01,        +5.468751673917e-14,        -5.602964821194e-13,        +1.099090412382e-04
 1.44000000e+01,        +5.037760780679e-14,        -5.574108698349e-13,        +1.106334733995e-04
 1.45000000e+01,        +4.611372053982e-14,        -5.545137392375e-13,        +1.113090935493e-04
 1.46000000e+01,        +4.189507809362e-14,        -5.516052851779e-13,        +1.119380064261e-04
 1.47000000e+01,        +3.772091438980e-14,        -5.486856764302e-13,        +1.125232269597e-04
 1.48000000e+01,        +3.359047411473e-14,        -5.457550546461e-13,        +1.130687263854e-04
 1.49000000e+01,        +2.950301308546e-14,        -5.428135331044e-13,        +1.135794557863e-04
 1.50000000e+01,        +2.545779905689e-14,        -5.398611953286e-13,        +1.140613411852e-04
 1.51000000e+01,        +2.145411303108e-14,        -5.368980936708e-13,        +1.145212444394e-04
 1.52000000e+01,        +1.749125111003e-14,        -5.339242479825e-13,        +1.149668847978e-04
 1.53000000e+01,        +1.356852690492e-14,        -5.309396445122e-13,        +1.154067171553e-04
 1.54000000e+01,        +9.685274478791e-15,        -5.279442351825e-13,        +1.158497648736e-04
 1.55000000e+01,        +5.840851756750e-15,        -5.249379374034e-13,        +1.163054075456e-04
 1.56000000e+01,        +2.034644291485e-15,        -5.219206345690e-13,        +1.167831272243e-04
 1.57000000e+01,        -1.733930775194e-15,        -5.188921773602e-13,        +1.172922202533e-04
 1.58000000e+01,        -5.465420755779e-15,        -5.158523859377e-13,        +1.178414856570e-04
 1.59000000e+01,        -9.160333697560e-15,        -5.128010530522e-13,        +1.184389046856e-04
 1.60000000e+01,        -1.281913514671e-14,        -5.097379480333e-13,        +1.190913290792e-04
 1.61000000e+01,        -1.644224563539e-14,        -5.066628215460e-13,        +1.198041974129e-04
 1.62000000e+01,        -2.003003909959e-14,        -5.035754109276e-13,        +1.205812990434e-04
 1.63000000e+01,        -2.358284237987e-14,        -5.004754458607e-13,        +1.214246033961e-04
 1.64000000e+01,        -2.710093588074e-14,        -4.973626540926e-13,        +1.223341685436e-04
 1.65000000e+01,        -3.058455537587e-14,        -4.942367668942e-13,        +1.233081374732e-04
 1.66000000e+01,        -3.403389485491e-14,        -4.910975239702e-13,        +1.243428236711e-04
 1.67000000e+01,        -3.744911022515e-14,        -4.879446775717e-13,        +1.254328804591e-04
 1.68000000e+01,        -4.083032361899e-14,        -4.847779956342e-13,        +1.265715417979e-04
 1.69000000e+01,        -4.417762802209e-14,        -4.815972638498e-13,        +1.277509168966e-04
 1.70000000e+01,        -4.749109193287e-14,        -4.784022866703e-13,        +1.289623175668e-04
 1.71000000e+01,        -5.077076378829e-14,        -4.751928873204e-13,        +1.301965961757e-04
 1.72000000e+01,        -5.401667593923e-14,        -4.719689069713e-13,        +1.314444732355e-04
 1.73000000e+01,        -5.722884802232e-14,        -4.687302032611e-13,        +1.326968367563e-04
 1.74000000e+01,        -6.040728964403e-14,        -4.654766483770e-13,        +1.339449998757e-04
 1.75000000e+01,        -6.355200235870e-14,        -4.622081269012e-13,        +1.351809082804e-04
 1.76000000e+01,        -6.666298097702e-14,        -4.589245336084e-13,        +1.363972938759e-04
 1.77000000e+01,        -6.974021428303e-14,        -4.556257713615e-13,        +1.375877755158e-04
 1.78000000e+01,        -7.278368526220e-14,        -4.523117492165e-13,        +1.387469110266e-04
 1.79000000e+01,        -7.579337095376e-14,        -4.489823808038e-13,        +1.398702071109e-04
 1.80000000e+01,        -7.876924203845e-14,        -4.456375830177e-13,        +1.409540949916e-04
 1.81000000e+01,        -8.171126226182e-14,        -4.422772750165e-13,        +1.419958800268e-04
 1.82000000e+01,        -8.461938777739e-14,        -4.389013775123e-13,        +1.429936731685e-04
 1.83000000e+01,        -8.749356647511e-14,        -4.355098123166e-13,        +1.439463113010e-04
 1.84000000e+01,        -9.033373734237e-14,        -4.321025020984e-13,        +1.448532723745e-04
 1.85000000e+01,        -9.313982988779e-14,        -4.286793703126e-13,        +1.457145900306e-04
 1.86000000e+01,        -9.591176364428e-14,        -4.252403412546e-13,        +1.465307712269e-04
 1.87000000e+01,        -9.864944775653e-14,        -4.217853402054e-13,        +1.473027192893e-04
 1.88000000e+01,        -1.013527806501e-13,        -4.183142936329e-13,        +1.480316639040e-04
 1.89000000e+01,        -1.040216497741e-13,        -4.148271294272e-13,        +1.487190988268e-04
 1.90000000e+01,        -1.066559314053e-13,        -4.113237771480e-13,        +1.493667275189e-04
 1.91000000e+01,        -1.092554905022e-13,        -4.078041682723e-13,        +1.499764165140e-04
 1.92000000e+01,        -1.118201805948e-13,        -4.042682364333e-13,        +1.505501560481e-04
 1.93000000e+01,        -1.143498436986e-13,        -4.007159176453e-13,        +1.510900273129e-04
 1.94000000e+01,        -1.168443102416e-13,        -3.971471505145e-13,        +1.515981756149e-04
 1.95000000e+01,        -1.193033989950e-13,        -3.935618764353e-13,        +1.520767886949e-04
 1.96000000e+01,        -1.217269170009e-13,        -3.899600397746e-13,        +1.525280794834e-04
 1.97000000e+01,        -1.241146594888e-13,        -3.863415880489e-13,        +1.529542726120e-04
 1.98000000e+01,        -1.264664097796e-13,        -3.827064720976e-13,        +1.533575940644e-04
 1.99000000e+01,        -1.287819391710e-13,        -3.790546462568e-13,        +1.537402634185e-04
 2.00000000e+01,        -1.310610068051e-13,        -3.753860685393e-13,        +1.541044882016e-04
 2.01000000e+01,        -1.333033595161e-13,        -3.717007008246e-13,        +1.544524599523e-04
 2.02000000e+01,        -1.355087316574e-13,        -3.679985090628e-13,        +1.547863516406e-04
 2.03000000e+01,        -1.376768449117e-13,        -3.642794634980e-13,        +1.551083161618e-04
 2.04000000e+01,        -1.398074080821e-13,        -3.605435389124e-13,        +1.554204856649e-04
 2.05000000e+01,        -1.419001168686e-13,        -3.567907148968e-13,        +1.557249715230e-04
 2.06000000e+01,        -1.439546536305e-13,        -3.530209761480e-13,        +1.560238647905e-04
 2.07000000e+01,        -1.459706871376e-13,        -3.492343127974e-13,        +1.563192370224e-04
 2.08000000e+01,        -1.479478723134e-13,        -3.454307207721e-13,        +1.566131413574e-04
 2.09000000e+01,        -1.498858499715e-13,        -3.416102021900e-13,        +1.569076137896e-04
 2.10000000e+01,        -1.517842465488e-13,        -3.377727657912e-13,        +1.572046745694e-04
 2.11000000e+01,        -1.536426738394e-13,        -3.339184274065e-13,        +1.575063296885e-04
 2.12000000e+01,        -1.554607287291e-13,        -3.300472104637e-13,        +1.578145724168e-04
 2.13000000e+01,        -1.572379929364e-13,        -3.261591465333e-13,        +1.581313848660e-04
 2.14000000e+01,        -1.589740327614e-13,        -3.222542759133e-13,        +1.584587395630e-04
 2.15000000e+01,        -1.606683988447e-13,        -3.183326482549e-13,        +1.587986010207e-04
 2.16000000e+01,        -1.623206259415e-13,        -3.143943232273e-13,        +1.591529272985e-04
 2.17000000e+01,        -1.639302327110e-13,        -3.104393712236e-13,        +1.595236715472e-04
 2.18000000e+01,        -1.654967215261e-13,        -3.064678741074e-13,        +1.599127835366e-04
