        f (GHz),                  p_surf[1],                  Q_surf[1],                  p_surf[2],                  Q_surf[2],                  p_surf[3],                  Q_surf[3]
 2.00000000e+00,        +9.449672146307e-05,        +1.058237772186e+04,        +3.222612778031e-05,        +3.103072161872e+04,        +2.692247349804e-07,        +3.714368964177e+06
 2.10000000e+00,        +9.449951595604e-05,        +1.058206478502e+04,        +3.222757412838e-05,        +3.102932898444e+04,        +2.692555938307e-07,        +3.713943267708e+06
 2.20000000e+00,        +9.450221482545e-05,        +1.058176257400e+04,        +3.222892951709e-05,        +3.102802404497e+04,        +2.692866823605e-07,        +3.713514501475e+06
 2.30000000e+00,        +9.450480811185e-05,        +1.058147220210e+04,        +3.223018347943e-05,        +3.102681685440e+04,        +2.693179820433e-07,        +3.713082923067e+06
 2.40000000e+00,        +9.450728683944e-05,        +1.058119467231e+04,        +3.223132630938e-05,        +3.102571673289e+04,        +2.693494797797e-07,        +3.712648715037e+06
 2.50000000e+00,        +9.450964290255e-05,        +1.058093089010e+04,        +3.223234901521e-05,        +3.102473231250e+04,        +2.693811668879e-07,        +3.712211998904e+06
 2.60000000e+00,        +9.451186896327e-05,        +1.058068167490e+04,        +3.223324326841e-05,        +3.102387158726e+04,        +2.694130382638e-07,        +3.711772846794e+06
 2.70000000e+00,        +9.451395835900e-05,        +1.058044777049e+04,        +3.223400134972e-05,        +3.102314196586e+04,        +2.694450916827e-07,        +3.711331291118e+06
 2.80000000e+00,        +9.451590501872e-05,        +1.058022985446e+04,        +3.223461609404e-05,        +3.102255032548e+04,        +2.694773272180e-07,        +3.710887332614e+06
 2.90000000e+00,        +9.451770338707e-05,        +1.058002854666e+04,        +3.223508083566e-05,        +3.102210306524e+04,        +2.695097467564e-07,        +3.710440947073e+06
 3.00000000e+00,        +9.451934835549e-05,        +1.057984441703e+04,        +3.223538935473e-05,        +3.102180615831e+04,        +2.695423535904e-07,        +3.709992090964e+06
 3.10000000e+00,        +9.452083520007e-05,        +1.057967799251e+04,        +3.223553582631e-05,        +3.102166520167e+04,        +2.695751520758e-07,        +3.709540706180e+06
 3.20000000e+00,        +9.452215952548e-05,        +1.057952976339e+04,        +3.223551477242e-05,        +3.102168546276e+04,        +2.696081473416e-07,        +3.709086724049e+06
 3.30000000e+00,        +9.452331721485e-05,        +1.057940018892e+04,        +3.223532101790e-05,        +3.102187192256e+04,        +2.696413450426e-07,        +3.708630068739e+06
 3.40000000e+00,        +9.452430438526e-05,        +1.057928970230e+04,        +3.223494965034e-05,        +3.102222931468e+04,        +2.696747511491e-07,        +3.708170660171e+06
 3.50000000e+00,        +9.452511734859e-05,        +1.057919871511e+04,        +3.223439598442e-05,        +3.102276216013e+04,        +2.697083717663e-07,        +3.707708416506e+06
 3.60000000e+00,        +9.452575257748e-05,        +1.057912762113e+04,        +3.223365553066e-05,        +3.102347479791e+04,        +2.697422129789e-07,        +3.707243256280e+06
 3.70000000e+00,        +9.452620667624e-05,        +1.057907679957e+04,        +3.223272396882e-05,        +3.102437141110e+04,        +2.697762807179e-07,        +3.706775100239e+06
 3.80000000e+00,        +9.452647635647e-05,        +1.057904661789e+04,        +3.223159712556e-05,        +3.102545604875e+04,        +2.698105806460e-07,        +3.706303872909e+06
 3.90000000e+00,        +9.452655841697e-05,        +1.057903743400e+04,        +3.223027095656e-05,        +3.102673264360e+04,        +2.698451180587e-07,        +3.705829503954e+06
 4.00000000e+00,        +9.452644972795e-05,        +1.057904959806e+04,        +3.222874153270e-05,        +3.102820502579e+04,        +2.698798977999e-07,        +3.705351929329e+06
 4.10000000e+00,        +9.452614721909e-05,        +1.057908345383e+04,        +3.222700503017e-05,        +3.102987693284e+04,        +2.699149241889e-07,        +3.704871092271e+06
 4.20000000e+00,        +9.452564787133e-05,        +1.057913933963e+04,        +3.222505772429e-05,        +3.103175201595e+04,        +2.699502009587e-07,        +3.704386944142e+06
 4.30000000e+00,        +9.452494871194e-05,        +1.057921758887e+04,        +3.222289598681e-05,        +3.103383384316e+04,        +2.699857312034e-07,        +3.703899445139e+06
 4.40000000e+00,        +9.452404681293e-05,        +1.057931853023e+04,        +3.222051628637e-05,        +3.103612589917e+04,        +2.700215173335e-07,        +3.703408564900e+06
 4.50000000e+00,        +9.452293929222e-05,        +1.057944248759e+04,        +3.221791519198e-05,        +3.103863158250e+04,        +2.700575610384e-07,        +3.702914282995e+06
 4.60000000e+00,        +9.452162331759e-05,        +1.057958977958e+04,        +3.221508937922e-05,        +3.104135419984e+04,        +2.700938632561e-07,        +3.702416589347e+06
 4.70000000e+00,        +9.452009611308e-05,        +1.057976071886e+04,        +3.221203563896e-05,        +3.104429695808e+04,        +2.701304241469e-07,        +3.701915484559e+06
 4.80000000e+00,        +9.451835496765e-05,        +1.057995561119e+04,        +3.220875088833e-05,        +3.104746295400e+04,        +2.701672430739e-07,        +3.701410980185e+06
 4.90000000e+00,        +9.451639724587e-05,        +1.058017475421e+04,        +3.220523218387e-05,        +3.105085516201e+04,        +2.702043185860e-07,        +3.700903098933e+06
 5.00000000e+00,        +9.451422040051e-05,        +1.058041843611e+04,        +3.220147673641e-05,        +3.105447642000e+04,        +2.702416484065e-07,        +3.700391874815e+06
 5.10000000e+00,        +9.451182198678e-05,        +1.058068693396e+04,        +3.219748192781e-05,        +3.105832941353e+04,        +2.702792294243e-07,        +3.699877353246e+06
 5.20000000e+00,        +9.450919967810e-05,        +1.058098051201e+04,        +3.219324532909e-05,        +3.106241665845e+04,        +2.703170576887e-07,        +3.699359591105e+06
 5.30000000e+00,        +9.450635128320e-05,        +1.058129941980e+04,        +3.218876471993e-05,        +3.106674048230e+04,        +2.703551284066e-07,        +3.698838656747e+06
 5.40000000e+00,        +9.450327476440e-05,        +1.058164389005e+04,        +3.218403810936e-05,        +3.107130300436e+04,        +2.703934359431e-07,        +3.698314629984e+06
 5.50000000e+00,        +9.449996825692e-05,        +1.058201413657e+04,        +3.217906375740e-05,        +3.107610611481e+04,        +2.704319738245e-07,        +3.697787602027e+06
 5.60000000e+00,        +9.449643008906e-05,        +1.058241035198e+04,        +3.217384019755e-05,        +3.108115145286e+04,        +2.704707347430e-07,        +3.697257675401e+06
 5.70000000e+00,        +9.449265880310e-05,        +1.058283270538e+04,        +3.216836626000e-05,        +3.108644038425e+04,        +2.705097105645e-07,        +3.696724963822e+06
 5.80000000e+00,        +9.448865317673e-05,        +1.058328133993e+04,        +3.216264109525e-05,        +3.109197397809e+04,        +2.705488923380e-07,        +3.696189592048e+06
 5.90000000e+00,        +9.448441224501e-05,        +1.058375637038e+04,        +3.215666419816e-05,        +3.109775298326e+04,        +2.705882703079e-07,        +3.695651695700e+06
 6.00000000e+00,        +9.447993532247e-05,        +1.058425788065e+04,        +3.215043543215e-05,        +3.110377780451e+04,        +2.706278339270e-07,        +3.695111421058e+06
 6.10000000e+00,        +9.447522202542e-05,        +1.058478592123e+04,        +3.214395505342e-05,        +3.111004847842e+04,        +2.706675718734e-07,        +3.694568924820e+06
 6.20000000e+00,        +9.447027229422e-05,        +1.058534050675e+04,        +3.213722373497e-05,        +3.111656464935e+04,        +2.707074720676e-07,        +3.694024373846e+06
 6.30000000e+00,        +9.446508641528e-05,        +1.058592161345e+04,        +3.213024259040e-05,        +3.112332554559e+04,        +2.707475216932e-07,        +3.693477944862e+06
 6.40000000e+00,        +9.445966504286e-05,        +1.058652917673e+04,        +3.212301319708e-05,        +3.113032995581e+04,        +2.707877072186e-07,        +3.692929824147e+06
 6.50000000e+00,        +9.445400922022e-05,        +1.058716308874e+04,        +3.211553761873e-05,        +3.113757620601e+04,        +2.708280144213e-07,        +3.692380207184e+06
 6.60000000e+00,        +9.444812040019e-05,        +1.058782319609e+04,        +3.210781842708e-05,        +3.114506213716e+04,        +2.708684284138e-07,        +3.691829298291e+06
 6.70000000e+00,        +9.444200046487e-05,        +1.058850929753e+04,        +3.209985872255e-05,        +3.115278508368e+04,        +2.709089336721e-07,        +3.691277310221e+06
 6.80000000e+00,        +9.443565174437e-05,        +1.058922114189e+04,        +3.209166215360e-05,        +3.116074185294e+04,        +2.709495140658e-07,        +3.690724463735e+06
 6.90000000e+00,        +9.442907703430e-05,        +1.058995842601e+04,        +3.208323293476e-05,        +3.116892870595e+04,        +2.709901528902e-07,        +3.690170987154e+06
 7.00000000e+00,        +9.442227961204e-05,        +1.059072079290e+04,        +3.207457586302e-05,        +3.117734133947e+04,        +2.710308329003e-07,        +3.689617115880e+06
 7.10000000e+00,        +9.441526325140e-05,        +1.059150783001e+04,        +3.206569633240e-05,        +3.118597486965e+04,        +2.710715363469e-07,        +3.689063091892e+06
 7.20000000e+00,        +9.440803223572e-05,        +1.059231906776e+04,        +3.205660034663e-05,        +3.119482381746e+04,        +2.711122450147e-07,        +3.688509163229e+06
 7.30000000e+00,        +9.440059136910e-05,        +1.059315397814e+04,        +3.204729452966e-05,        +3.120388209603e+04,        +2.711529402610e-07,        +3.687955583434e+06
 7.40000000e+00,        +9.439294598563e-05,        +1.059401197365e+04,        +3.203778613381e-05,        +3.121314300006e+04,        +2.711936030578e-07,        +3.687402610993e+06
 7.50000000e+00,        +9.438510195656e-05,        +1.059489240643e+04,        +3.202808304561e-05,        +3.122259919758e+04,        +2.712342140336e-07,        +3.686850508749e+06
 7.60000000e+00,        +9.437706569520e-05,        +1.059579456761e+04,        +3.201819378886e-05,        +3.123224272407e+04,        +2.712747535177e-07,        +3.686299543295e+06
 7.70000000e+00,        +9.436884415938e-05,        +1.059671768694e+04,        +3.200812752505e-05,        +3.124206497920e+04,        +2.713152015853e-07,        +3.685749984362e+06
 7.80000000e+00,        +9.436044485151e-05,        +1.059766093275e+04,        +3.199789405089e-05,        +3.125205672629e+04,        +2.713555381030e-07,        +3.685202104187e+06
 7.90000000e+00,        +9.435187581592e-05,        +1.059862341212e+04,        +3.198750379288e-05,        +3.126220809461e+04,        +2.713957427765e-07,        +3.684656176878e+06
 8.00000000e+00,        +9.434314563365e-05,        +1.059960417139e+04,        +3.197696779881e-05,        +3.127250858467e+04,        +2.714357951971e-07,        +3.684112477773e+06
 8.10000000e+00,        +9.433426341431e-05,        +1.060060219698e+04,        +3.196629772615e-05,        +3.128294707654e+04,        +2.714756748897e-07,        +3.683571282791e+06
 8.20000000e+00,        +9.432523878531e-05,        +1.060161641654e+04,        +3.195550582724e-05,        +3.129351184131e+04,        +2.715153613602e-07,        +3.683032867791e+06
 8.30000000e+00,        +9.431608187812e-05,        +1.060264570036e+04,        +3.194460493138e-05,        +3.130419055575e+04,        +2.715548341433e-07,        +3.682497507934e+06
 8.40000000e+00,        +9.430680331175e-05,        +1.060368886319e+04,        +3.193360842361e-05,        +3.131497032013e+04,        +2.715940728487e-07,        +3.681965477050e+06
 8.50000000e+00,        +9.429741417332e-05,        +1.060474466630e+04,        +3.192253022042e-05,        +3.132583767938e+04,        +2.716330572077e-07,        +3.681437047021e+06
 8.60000000e+00,        +9.428792599594e-05,        +1.060581181988e+04,        +3.191138474236e-05,        +3.133677864729e+04,        +2.716717671179e-07,        +3.680912487185e+06
 8.70000000e+00,        +9.427835073369e-05,        +1.060688898584e+04,        +3.190018688354e-05,        +3.134777873405e+04,        +2.717101826867e-07,        +3.680392063749e+06
 8.80000000e+00,        +9.426870073409e-05,        +1.060797478074e+04,        +3.188895197826e-05,        +3.135882297674e+04,        +2.717482842730e-07,        +3.679876039236e+06
 8.90000000e+00,        +9.425898870790e-05,        +1.060906777919e+04,        +3.187769576490e-05,        +3.136989597288e+04,        +2.717860525273e-07,        +3.679364671959e+06
 9.00000000e+00,        +9.424922769652e-05,        +1.061016651744e+04,        +3.186643434709e-05,        +3.138098191684e+04,        +2.718234684287e-07,        +3.678858215520e+06
 9.10000000e+00,        +9.423943103716e-05,        +1.061126949722e+04,        +3.185518415245e-05,        +3.139206463897e+04,        +2.718605133205e-07,        +3.678356918355e+06
 9.20000000e+00,        +9.422961232580e-05,        +1.061237518990e+04,        +3.184396188916e-05,        +3.140312764727e+04,        +2.718971689420e-07,        +3.677861023310e+06
 9.30000000e+00,        +9.421978537837e-05,        +1.061348204079e+04,        +3.183278450042e-05,        +3.141415417136e+04,        +2.719334174578e-07,        +3.677370767258e+06
 9.40000000e+00,        +9.420996419013e-05,        +1.061458847370e+04,        +3.182166911722e-05,        +3.142512720864e+04,        +2.719692414840e-07,        +3.676886380766e+06
 9.50000000e+00,        +9.420016289363e-05,        +1.061569289566e+04,        +3.181063300957e-05,        +3.143602957222e+04,        +2.720046241106e-07,        +3.676408087803e+06
 9.60000000e+00,        +9.419039571548e-05,        +1.061679370178e+04,        +3.179969353653e-05,        +3.144684394053e+04,        +2.720395489208e-07,        +3.675936105492e+06
 9.70000000e+00,        +9.418067693212e-05,        +1.061788928020e+04,        +3.178886809533e-05,        +3.145755290818e+04,        +2.720740000067e-07,        +3.675470643925e+06
 9.80000000e+00,        +9.417102082499e-05,        +1.061897801722e+04,        +3.177817406992e-05,        +3.146813903781e+04,        +2.721079619810e-07,        +3.675011906009e+06
 9.90000000e+00,        +9.416144163525e-05,        +1.062005830235e+04,        +3.176762877915e-05,        +3.147858491271e+04,        +2.721414199859e-07,        +3.674560087369e+06
 1.00000000e+01,        +9.415195351845e-05,        +1.062112853350e+04,        +3.175724942505e-05,        +3.148887318973e+04,        +2.721743596973e-07,        +3.674115376305e+06
 1.01000000e+01,        +9.414257049937e-05,        +1.062218712210e+04,        +3.174705304147e-05,        +3.149898665220e+04,        +2.722067673271e-07,        +3.673677953783e+06
 1.02000000e+01,        +9.413330642747e-05,        +1.062323249816e+04,        +3.173705644335e-05,        +3.150890826264e+04,        +2.722386296203e-07,        +3.673247993478e+06
 1.03000000e+01,        +9.412417493305e-05,        +1.062426311531e+04,        +3.172727617710e-05,        +3.151862121470e+04,        +2.722699338512e-07,        +3.672825661854e+06
 1.04000000e+01,        +9.411518938458e-05,        +1.062527745563e+04,        +3.171772847214e-05,        +3.152810898418e+04,        +2.723006678150e-07,        +3.672411118284e+06
 1.05000000e+01,        +9.410636284749e-05,        +1.062627403442e+04,        +3.170842919425e-05,        +3.153735537872e+04,        +2.723308198186e-07,        +3.672004515193e+06
 1.06000000e+01,        +9.409770804463e-05,        +1.062725140474e+04,        +3.169939380073e-05,        +3.154634458584e+04,        +2.723603786680e-07,        +3.671605998239e+06
 1.07000000e+01,        +9.408923731880e-05,        +1.062820816170e+04,        +3.169063729782e-05,        +3.155506121894e+04,        +2.723893336556e-07,        +3.671215706502e+06
 1.08000000e+01,        +9.408096259753e-05,        +1.062914294657e+04,        +3.168217420058e-05,        +3.156349036114e+04,        +2.724176745460e-07,        +3.670833772686e+06
 1.09000000e+01,        +9.407289536048e-05,        +1.063005445052e+04,        +3.167401849556e-05,        +3.157161760640e+04,        +2.724453915614e-07,        +3.670460323329e+06
 1.10000000e+01,        +9.406504660971e-05,        +1.063094141811e+04,        +3.166618360642e-05,        +3.157942909790e+04,        +2.724724753686e-07,        +3.670095478992e+06
 1.11000000e+01,        +9.405742684298e-05,        +1.063180265041e+04,        +3.165868236275e-05,        +3.158691156321e+04,        +2.724989170657e-07,        +3.669739354446e+06
 1.12000000e+01,        +9.405004603055e-05,        +1.063263700770e+04,        +3.165152697241e-05,        +3.159405234609e+04,        +2.725247081730e-07,        +3.669392058812e+06
 1.13000000e+01,        +9.404291359545e-05,        +1.063344341182e+04,        +3.164472899733e-05,        +3.160083943472e+04,        +2.725498406255e-07,        +3.669053695666e+06
 1.14000000e+01,        +9.403603839773e-05,        +1.063422084808e+04,        +3.163829933326e-05,        +3.160726148604e+04,        +2.725743067705e-07,        +3.668724363085e+06
 1.15000000e+01,        +9.402942872274e-05,        +1.063496836664e+04,        +3.163224819335e-05,        +3.161330784608e+04,        +2.725980993708e-07,        +3.668404153618e+06
 1.16000000e+01,        +9.402309227368e-05,        +1.063568508350e+04,        +3.162658509596e-05,        +3.161896856603e+04,        +2.726212116135e-07,        +3.668093154166e+06
 1.17000000e+01,        +9.401703616876e-05,        +1.063637018088e+04,        +3.162131885655e-05,        +3.162423441402e+04,        +2.726436371279e-07,        +3.667791445765e+06
 1.18000000e+01,        +9.401126694300e-05,        +1.063702290712e+04,        +3.161645758411e-05,        +3.162909688221e+04,        +2.726653700113e-07,        +3.667499103236e+06
 1.19000000e+01,        +9.400579055507e-05,        +1.063764257601e+04,        +3.161200868185e-05,        +3.163354818937e+04,        +2.726864048662e-07,        +3.667216194700e+06
 1.20000000e+01,        +9.400061239914e-05,        +1.063822856551e+04,        +3.160797885262e-05,        +3.163758127854e+04,        +2.727067368490e-07,        +3.666942780932e+06
 1.21000000e+01,        +9.399573732210e-05,        +1.063878031589e+04,        +3.160437410885e-05,        +3.164118980986e+04,        +2.727263617316e-07,        +3.666678914538e+06
 1.22000000e+01,        +9.399116964623e-05,        +1.063929732723e+04,        +3.160119978722e-05,        +3.164436814847e+04,        +2.727452759780e-07,        +3.666424638940e+06
 1.23000000e+01,        +9.398691319746e-05,        +1.063977915627e+04,        +3.159846056800e-05,        +3.164711134734e+04,        +2.727634768362e-07,        +3.666179987142e+06
 1.24000000e+01,        +9.398297133926e-05,        +1.064022541265e+04,        +3.159616049925e-05,        +3.164941512509e+04,        +2.727809624474e-07,        +3.665944980280e+06
 1.25000000e+01,        +9.397934701240e-05,        +1.064063575445e+04,        +3.159430302564e-05,        +3.165127583883e+04,        +2.727977319730e-07,        +3.665719625920e+06
 1.26000000e+01,        +9.397604278038e-05,        +1.064100988309e+04,        +3.159289102194e-05,        +3.165269045196e+04,        +2.728137857396e-07,        +3.665503916119e+06
