        f (GHz),                  p_surf[1],                  Q_surf[1],                  p_surf[2],                  Q_surf[2],                  p_surf[3],                  Q_surf[3]
 2.00000000e+00,        +9.484533101170e-05,        +1.054348157504e+04,        +3.105594218714e-05,        +3.219995690274e+04,        +2.816245654234e-07,        +3.550826606679e+06
 2.10000000e+00,        +9.484921587826e-05,        +1.054304973152e+04,        +3.105652761519e-05,        +3.219934992059e+04,        +2.816540975053e-07,        +3.550454294318e+06
 2.20000000e+00,        +9.485306582732e-05,        +1.054262180434e+04,        +3.105701360361e-05,        +3.219884605658e+04,        +2.816837299727e-07,        +3.550080794858e+06
 2.30000000e+00,        +9.485687368748e-05,        +1.054219858958e+04,        +3.105740255702e-05,        +3.219844280809e+04,        +2.817134872504e-07,        +3.549705801310e+06
 2.40000000e+00,        +9.486063320379e-05,        +1.054178078120e+04,        +3.105769733012e-05,        +3.219813720801e+04,        +2.817433978419e-07,        +3.549328955566e+06
 2.50000000e+00,        +9.486433889947e-05,        +1.054136898650e+04,        +3.105790108976e-05,        +3.219792596769e+04,        +2.817734927005e-07,        +3.548949868974e+06
 2.60000000e+00,        +9.486798595613e-05,        +1.054096373947e+04,        +3.105801720955e-05,        +3.219780558601e+04,        +2.818038039579e-07,        +3.548568138383e+06
 2.70000000e+00,        +9.487157011007e-05,        +1.054056551230e+04,        +3.105804919075e-05,        +3.219777243118e+04,        +2.818343639476e-07,        +3.548183358456e+06
 2.80000000e+00,        +9.487508756172e-05,        +1.054017472553e+04,        +3.105800060403e-05,        +3.219782280094e+04,        +2.818652044685e-07,        +3.547795130958e+06
 2.90000000e+00,        +9.487853489655e-05,        +1.053979175680e+04,        +3.105787504756e-05,        +3.219795296583e+04,        +2.818963562370e-07,        +3.547403071642e+06
 3.00000000e+00,        +9.488190901557e-05,        +1.053941694866e+04,        +3.105767611745e-05,        +3.219815919962e+04,        +2.819278484892e-07,        +3.547006815250e+06
 3.10000000e+00,        +9.488520707411e-05,        +1.053905061533e+04,        +3.105740738764e-05,        +3.219843779999e+04,        +2.819597086979e-07,        +3.546606019059e+06
 3.20000000e+00,        +9.488842642791e-05,        +1.053869304872e+04,        +3.105707239676e-05,        +3.219878510198e+04,        +2.819919623765e-07,        +3.546200365332e+06
 3.30000000e+00,        +9.489156458572e-05,        +1.053834452373e+04,        +3.105667464009e-05,        +3.219919748617e+04,        +2.820246329488e-07,        +3.545789562933e+06
 3.40000000e+00,        +9.489461916748e-05,        +1.053800530286e+04,        +3.105621756514e-05,        +3.219967138312e+04,        +2.820577416662e-07,        +3.545373348353e+06
 3.50000000e+00,        +9.489758786796e-05,        +1.053767564031e+04,        +3.105570456981e-05,        +3.220020327512e+04,        +2.820913075584e-07,        +3.544951486295e+06
 3.60000000e+00,        +9.490046842492e-05,        +1.053735578546e+04,        +3.105513900230e-05,        +3.220078969622e+04,        +2.821253474089e-07,        +3.544523769964e+06
 3.70000000e+00,        +9.490325859179e-05,        +1.053704598597e+04,        +3.105452416211e-05,        +3.220142723101e+04,        +2.821598757447e-07,        +3.544090021165e+06
 3.80000000e+00,        +9.490595611421e-05,        +1.053674649035e+04,        +3.105386330173e-05,        +3.220211251282e+04,        +2.821949048370e-07,        +3.543650090272e+06
 3.90000000e+00,        +9.490855871038e-05,        +1.053645755017e+04,        +3.105315962869e-05,        +3.220284222144e+04,        +2.822304447054e-07,        +3.543203856139e+06
 4.00000000e+00,        +9.491106405466e-05,        +1.053617942187e+04,        +3.105241630776e-05,        +3.220361308083e+04,        +2.822665031254e-07,        +3.542751225978e+06
 4.10000000e+00,        +9.491346976435e-05,        +1.053591236821e+04,        +3.105163646302e-05,        +3.220442185683e+04,        +2.823030856343e-07,        +3.542292135253e+06
 4.20000000e+00,        +9.491577338932e-05,        +1.053565665949e+04,        +3.105082317990e-05,        +3.220526535500e+04,        +2.823401955362e-07,        +3.541826547583e+06
 4.30000000e+00,        +9.491797240426e-05,        +1.053541257435e+04,        +3.104997950684e-05,        +3.220614041886e+04,        +2.823778339034e-07,        +3.541354454692e+06
 4.40000000e+00,        +9.492006420335e-05,        +1.053518040040e+04,        +3.104910845673e-05,        +3.220704392828e+04,        +2.824159995742e-07,        +3.540875876394e+06
 4.50000000e+00,        +9.492204609712e-05,        +1.053496043455e+04,        +3.104821300802e-05,        +3.220797279836e+04,        +2.824546891480e-07,        +3.540390860624e+06
 4.60000000e+00,        +9.492391531140e-05,        +1.053475298316e+04,        +3.104729610539e-05,        +3.220892397861e+04,        +2.824938969754e-07,        +3.539899483517e+06
 4.70000000e+00,        +9.492566898808e-05,        +1.053455836193e+04,        +3.104636066017e-05,        +3.220989445255e+04,        +2.825336151459e-07,        +3.539401849523e+06
 4.80000000e+00,        +9.492730418759e-05,        +1.053437689565e+04,        +3.104540955023e-05,        +3.221088123776e+04,        +2.825738334721e-07,        +3.538898091563e+06
 4.90000000e+00,        +9.492881789301e-05,        +1.053420891775e+04,        +3.104444561957e-05,        +3.221188138627e+04,        +2.826145394709e-07,        +3.538388371214e+06
 5.00000000e+00,        +9.493020701559e-05,        +1.053405476969e+04,        +3.104347167748e-05,        +3.221289198544e+04,        +2.826557183438e-07,        +3.537872878920e+06
 5.10000000e+00,        +9.493146840157e-05,        +1.053391480020e+04,        +3.104249049736e-05,        +3.221391015921e+04,        +2.826973529541e-07,        +3.537351834215e+06
 5.20000000e+00,        +9.493259884029e-05,        +1.053378936441e+04,        +3.104150481503e-05,        +3.221493306973e+04,        +2.827394238048e-07,        +3.536825485965e+06
 5.30000000e+00,        +9.493359507339e-05,        +1.053367882283e+04,        +3.104051732680e-05,        +3.221595791951e+04,        +2.827819090151e-07,        +3.536294112600e+06
 5.40000000e+00,        +9.493445380507e-05,        +1.053358354021e+04,        +3.103953068706e-05,        +3.221698195382e+04,        +2.828247842983e-07,        +3.535758022342e+06
 5.50000000e+00,        +9.493517171335e-05,        +1.053350388431e+04,        +3.103854750551e-05,        +3.221800246363e+04,        +2.828680229407e-07,        +3.535217553416e+06
 5.60000000e+00,        +9.493574546208e-05,        +1.053344022457e+04,        +3.103757034408e-05,        +3.221901678882e+04,        +2.829115957820e-07,        +3.534673074237e+06
 5.70000000e+00,        +9.493617171391e-05,        +1.053339293071e+04,        +3.103660171346e-05,        +3.222002232178e+04,        +2.829554711995e-07,        +3.534124983557e+06
 5.80000000e+00,        +9.493644714392e-05,        +1.053336237119e+04,        +3.103564406928e-05,        +3.222101651146e+04,        +2.829996150946e-07,        +3.533573710572e+06
 5.90000000e+00,        +9.493656845392e-05,        +1.053334891165e+04,        +3.103469980800e-05,        +3.222199686759e+04,        +2.830439908842e-07,        +3.533019714978e+06
 6.00000000e+00,        +9.493653238733e-05,        +1.053335291329e+04,        +3.103377126247e-05,        +3.222296096541e+04,        +2.830885594970e-07,        +3.532463486962e+06
 6.10000000e+00,        +9.493633574465e-05,        +1.053337473114e+04,        +3.103286069725e-05,        +3.222390645052e+04,        +2.831332793748e-07,        +3.531905547126e+06
 6.20000000e+00,        +9.493597539929e-05,        +1.053341471233e+04,        +3.103197030357e-05,        +3.222483104416e+04,        +2.831781064809e-07,        +3.531346446331e+06
 6.30000000e+00,        +9.493544831386e-05,        +1.053347319427e+04,        +3.103110219419e-05,        +3.222573254866e+04,        +2.832229943149e-07,        +3.530786765456e+06
 6.40000000e+00,        +9.493475155676e-05,        +1.053355050286e+04,        +3.103025839790e-05,        +3.222660885310e+04,        +2.832678939355e-07,        +3.530227115070e+06
 6.50000000e+00,        +9.493388231893e-05,        +1.053364695063e+04,        +3.102944085399e-05,        +3.222745793923e+04,        +2.833127539913e-07,        +3.529668134993e+06
 6.60000000e+00,        +9.493283793081e-05,        +1.053376283482e+04,        +3.102865140642e-05,        +3.222827788749e+04,        +2.833575207603e-07,        +3.529110493757e+06
 6.70000000e+00,        +9.493161587936e-05,        +1.053389843559e+04,        +3.102789179797e-05,        +3.222906688315e+04,        +2.834021381993e-07,        +3.528554887955e+06
 6.80000000e+00,        +9.493021382500e-05,        +1.053405401407e+04,        +3.102716366432e-05,        +3.222982322261e+04,        +2.834465480024e-07,        +3.528002041469e+06
 6.90000000e+00,        +9.492862961850e-05,        +1.053422981053e+04,        +3.102646852800e-05,        +3.223054531964e+04,        +2.834906896701e-07,        +3.527452704580e+06
 7.00000000e+00,        +9.492686131763e-05,        +1.053442604253e+04,        +3.102580779245e-05,        +3.223123171167e+04,        +2.835345005890e-07,        +3.526907652941e+06
 7.10000000e+00,        +9.492490720342e-05,        +1.053464290312e+04,        +3.102518273603e-05,        +3.223188106605e+04,        +2.835779161222e-07,        +3.526367686436e+06
 7.20000000e+00,        +9.492276579617e-05,        +1.053488055908e+04,        +3.102459450621e-05,        +3.223249218615e+04,        +2.836208697110e-07,        +3.525833627896e+06
 7.30000000e+00,        +9.492043587077e-05,        +1.053513914919e+04,        +3.102404411383e-05,        +3.223306401740e+04,        +2.836632929877e-07,        +3.525306321687e+06
 7.40000000e+00,        +9.491791647151e-05,        +1.053541878261e+04,        +3.102353242757e-05,        +3.223359565306e+04,        +2.837051158996e-07,        +3.524786632166e+06
 7.50000000e+00,        +9.491520692610e-05,        +1.053571953732e+04,        +3.102306016865e-05,        +3.223408633976e+04,        +2.837462668446e-07,        +3.524275442002e+06
 7.60000000e+00,        +9.491230685890e-05,        +1.053604145863e+04,        +3.102262790583e-05,        +3.223453548279e+04,        +2.837866728170e-07,        +3.523773650374e+06
 7.70000000e+00,        +9.490921620316e-05,        +1.053638455784e+04,        +3.102223605072e-05,        +3.223494265098e+04,        +2.838262595655e-07,        +3.523282171040e+06
 7.80000000e+00,        +9.490593521225e-05,        +1.053674881095e+04,        +3.102188485348e-05,        +3.223530758119e+04,        +2.838649517602e-07,        +3.522801930282e+06
 7.90000000e+00,        +9.490246446971e-05,        +1.053713415756e+04,        +3.102157439897e-05,        +3.223563018236e+04,        +2.839026731709e-07,        +3.522333864739e+06
 8.00000000e+00,        +9.489880489811e-05,        +1.053754049984e+04,        +3.102130460338e-05,        +3.223591053908e+04,        +2.839393468545e-07,        +3.521878919136e+06
 8.10000000e+00,        +9.489495776651e-05,        +1.053796770173e+04,        +3.102107521129e-05,        +3.223614891453e+04,        +2.839748953505e-07,        +3.521438043900e+06
 8.20000000e+00,        +9.489092469651e-05,        +1.053841558820e+04,        +3.102088579348e-05,        +3.223634575291e+04,        +2.840092408862e-07,        +3.521012192701e+06
 8.30000000e+00,        +9.488670766686e-05,        +1.053888394474e+04,        +3.102073574516e-05,        +3.223650168117e+04,        +2.840423055874e-07,        +3.520602319897e+06
 8.40000000e+00,        +9.488230901640e-05,        +1.053937251703e+04,        +3.102062428497e-05,        +3.223661751013e+04,        +2.840740116970e-07,        +3.520209377923e+06
 8.50000000e+00,        +9.487773144542e-05,        +1.053988101070e+04,        +3.102055045461e-05,        +3.223669423479e+04,        +2.841042817975e-07,        +3.519834314616e+06
 8.60000000e+00,        +9.487297801535e-05,        +1.054040909139e+04,        +3.102051311916e-05,        +3.223673303399e+04,        +2.841330390389e-07,        +3.519478070493e+06
 8.70000000e+00,        +9.486805214671e-05,        +1.054095638491e+04,        +3.102051096820e-05,        +3.223673526929e+04,        +2.841602073686e-07,        +3.519141576015e+06
 8.80000000e+00,        +9.486295761525e-05,        +1.054152247768e+04,        +3.102054251759e-05,        +3.223670248297e+04,        +2.841857117638e-07,        +3.518825748816e+06
 8.90000000e+00,        +9.485769854647e-05,        +1.054210691724e+04,        +3.102060611209e-05,        +3.223663639538e+04,        +2.842094784637e-07,        +3.518531490946e+06
 9.00000000e+00,        +9.485227940825e-05,        +1.054270921309e+04,        +3.102069992875e-05,        +3.223653890134e+04,        +2.842314352013e-07,        +3.518259686131e+06
 9.10000000e+00,        +9.484670500176e-05,        +1.054332883764e+04,        +3.102082198100e-05,        +3.223641206582e+04,        +2.842515114329e-07,        +3.518011197053e+06
 9.20000000e+00,        +9.484098045076e-05,        +1.054396522734e+04,        +3.102097012364e-05,        +3.223625811876e+04,        +2.842696385633e-07,        +3.517786862691e+06
 9.30000000e+00,        +9.483511118909e-05,        +1.054461778408e+04,        +3.102114205848e-05,        +3.223607944913e+04,        +2.842857501673e-07,        +3.517587495721e+06
 9.40000000e+00,        +9.482910294665e-05,        +1.054528587666e+04,        +3.102133534081e-05,        +3.223587859819e+04,        +2.842997822034e-07,        +3.517413879988e+06
 9.50000000e+00,        +9.482296173386e-05,        +1.054596884251e+04,        +3.102154738652e-05,        +3.223565825200e+04,        +2.843116732210e-07,        +3.517266768088e+06
 9.60000000e+00,        +9.481669382464e-05,        +1.054666598953e+04,        +3.102177548004e-05,        +3.223542123317e+04,        +2.843213645577e-07,        +3.517146879045e+06
 9.70000000e+00,        +9.481030573814e-05,        +1.054737659809e+04,        +3.102201678283e-05,        +3.223517049199e+04,        +2.843288005270e-07,        +3.517054896115e+06
 9.80000000e+00,        +9.480380421917e-05,        +1.054809992317e+04,        +3.102226834255e-05,        +3.223490909684e+04,        +2.843339285943e-07,        +3.516991464733e+06
 9.90000000e+00,        +9.479719621772e-05,        +1.054883519659e+04,        +3.102252710282e-05,        +3.223464022404e+04,        +2.843366995409e-07,        +3.516957190594e+06
 1.00000000e+01,        +9.479048886748e-05,        +1.054958162942e+04,        +3.102278991350e-05,        +3.223436714713e+04,        +2.843370676143e-07,        +3.516952637904e+06
 1.01000000e+01,        +9.478368946360e-05,        +1.055033841433e+04,        +3.102305354148e-05,        +3.223409322564e+04,        +2.843349906642e-07,        +3.516978327796e+06
 1.02000000e+01,        +9.477680543999e-05,        +1.055110472818e+04,        +3.102331468186e-05,        +3.223382189347e+04,        +2.843304302639e-07,        +3.517034736914e+06
 1.03000000e+01,        +9.476984434618e-05,        +1.055187973452e+04,        +3.102356996952e-05,        +3.223355664685e+04,        +2.843233518163e-07,        +3.517122296189e+06
 1.04000000e+01,        +9.476281382399e-05,        +1.055266258616e+04,        +3.102381599101e-05,        +3.223330103202e+04,        +2.843137246429e-07,        +3.517241389792e+06
 1.05000000e+01,        +9.475572158432e-05,        +1.055345242778e+04,        +3.102404929660e-05,        +3.223305863266e+04,        +2.843015220582e-07,        +3.517392354288e+06
 1.06000000e+01,        +9.474857538408e-05,        +1.055424839842e+04,        +3.102426641263e-05,        +3.223283305718e+04,        +2.842867214261e-07,        +3.517575477966e+06
 1.07000000e+01,        +9.474138300371e-05,        +1.055504963402e+04,        +3.102446385383e-05,        +3.223262792587e+04,        +2.842693042012e-07,        +3.517791000369e+06
 1.08000000e+01,        +9.473415222533e-05,        +1.055585526982e+04,        +3.102463813574e-05,        +3.223244685804e+04,        +2.842492559524e-07,        +3.518039112009e+06
 1.09000000e+01,        +9.472689081182e-05,        +1.055666444269e+04,        +3.102478578709e-05,        +3.223229345926e+04,        +2.842265663724e-07,        +3.518319954264e+06
 1.10000000e+01,        +9.471960648717e-05,        +1.055747629331e+04,        +3.102490336207e-05,        +3.223217130863e+04,        +2.842012292703e-07,        +3.518633619452e+06
 1.11000000e+01,        +9.471230691814e-05,        +1.055828996821e+04,        +3.102498745240e-05,        +3.223208394634e+04,        +2.841732425500e-07,        +3.518980151075e+06
 1.12000000e+01,        +9.470499969767e-05,        +1.055910462164e+04,        +3.102503469916e-05,        +3.223203486142e+04,        +2.841426081750e-07,        +3.519359544219e+06
 1.13000000e+01,        +9.469769233020e-05,        +1.055991941718e+04,        +3.102504180432e-05,        +3.223202747984e+04,        +2.841093321195e-07,        +3.519771746108e+06
 1.14000000e+01,        +9.469039221908e-05,        +1.056073352919e+04,        +3.102500554189e-05,        +3.223206515305e+04,        +2.840734243084e-07,        +3.520216656783e+06
 1.15000000e+01,        +9.468310665649e-05,        +1.056154614390e+04,        +3.102492276860e-05,        +3.223215114695e+04,        +2.840348985460e-07,        +3.520694129909e+06
 1.16000000e+01,        +9.467584281593e-05,        +1.056235646029e+04,        +3.102479043406e-05,        +3.223228863142e+04,        +2.839937724358e-07,        +3.521203973676e+06
 1.17000000e+01,        +9.466860774765e-05,        +1.056316369060e+04,        +3.102460559039e-05,        +3.223248067043e+04,        +2.839500672929e-07,        +3.521745951793e+06
 1.18000000e+01,        +9.466140837716e-05,        +1.056396706053e+04,        +3.102436540114e-05,        +3.223273021286e+04,        +2.839038080499e-07,        +3.522319784539e+06
 1.19000000e+01,        +9.465425150708e-05,        +1.056476580902e+04,        +3.102406714956e-05,        +3.223304008398e+04,        +2.838550231586e-07,        +3.522925149862e+06
 1.20000000e+01,        +9.464714382256e-05,        +1.056555918766e+04,        +3.102370824611e-05,        +3.223341297781e+04,        +2.838037444896e-07,        +3.523561684496e+06
 1.21000000e+01,        +9.464009190037e-05,        +1.056634645973e+04,        +3.102328623506e-05,        +3.223385145026e+04,        +2.837500072314e-07,        +3.524228985075e+06
 1.22000000e+01,        +9.463310222187e-05,        +1.056712689874e+04,        +3.102279880036e-05,        +3.223435791320e+04,        +2.836938497906e-07,        +3.524926609223e+06
 1.23000000e+01,        +9.462618119000e-05,        +1.056789978655e+04,        +3.102224377039e-05,        +3.223493462953e+04,        +2.836353136970e-07,        +3.525654076588e+06
 1.24000000e+01,        +9.461933515029e-05,        +1.056866441105e+04,        +3.102161912191e-05,        +3.223558370922e+04,        +2.835744435131e-07,        +3.526410869793e+06
 1.25000000e+01,        +9.461257041593e-05,        +1.056942006336e+04,        +3.102092298284e-05,        +3.223630710644e+04,        +2.835112867535e-07,        +3.527196435285e+06
 1.26000000e+01,        +9.460589329694e-05,        +1.057016603460e+04,        +3.102015363403e-05,        +3.223710661777e+04,        +2.834458938130e-07,        +3.528010184052e+06
