         f (GHz),               p_surf[1],               Q_surf[1],               p_surf[2],               Q_surf[2],               p_surf[3],               Q_surf[3]
 2.000000000e+00,        +9.430586462e-05,        +1.060379441e+04,        +3.333523131e-05,        +2.999829192e+04,        +2.770094318e-07,        +3.609985384e+06
 2.100000000e+00,        +9.430869955e-05,        +1.060347566e+04,        +3.333658850e-05,        +2.999707064e+04,        +2.770396642e-07,        +3.609591439e+06
 2.200000000e+00,        +9.431144162e-05,        +1.060316737e+04,        +3.333784873e-05,        +2.999593669e+04,        +2.770701050e-07,        +3.609194864e+06
 2.300000000e+00,        +9.431408105e-05,        +1.060287063e+04,        +3.333900144e-05,        +2.999489958e+04,        +2.771007356e-07,        +3.608795905e+06
 2.400000000e+00,        +9.431660906e-05,        +1.060258644e+04,        +3.334003680e-05,        +2.999396809e+04,        +2.771315426e-07,        +3.608394738e+06
 2.500000000e+00,        +9.431901769e-05,        +1.060231568e+04,        +3.334094571e-05,        +2.999315043e+04,        +2.771625170e-07,        +3.607991480e+06
 2.600000000e+00,        +9.432129973e-05,        +1.060205916e+04,        +3.334171970e-05,        +2.999245417e+04,        +2.771936537e-07,        +3.607586200e+06
 2.700000000e+00,        +9.432344863e-05,        +1.060181762e+04,        +3.334235090e-05,        +2.999188639e+04,        +2.772249504e-07,        +3.607178930e+06
 2.800000000e+00,        +9.432545840e-05,        +1.060159173e+04,        +3.334283196e-05,        +2.999145367e+04,        +2.772564072e-07,        +3.606769669e+06
 2.900000000e+00,        +9.432732357e-05,        +1.060138210e+04,        +3.334315605e-05,        +2.999116216e+04,        +2.772880262e-07,        +3.606358392e+06
 3.000000000e+00,        +9.432903906e-05,        +1.060118930e+04,        +3.334331671e-05,        +2.999101765e+04,        +2.773198110e-07,        +3.605945051e+06
 3.100000000e+00,        +9.433060021e-05,        +1.060101386e+04,        +3.334330792e-05,        +2.999102556e+04,        +2.773517666e-07,        +3.605529585e+06
 3.200000000e+00,        +9.433200262e-05,        +1.060085625e+04,        +3.334312394e-05,        +2.999119104e+04,        +2.773838988e-07,        +3.605111920e+06
 3.300000000e+00,        +9.433324220e-05,        +1.060071695e+04,        +3.334275936e-05,        +2.999151898e+04,        +2.774162141e-07,        +3.604691972e+06
 3.400000000e+00,        +9.433431506e-05,        +1.060059639e+04,        +3.334220899e-05,        +2.999201404e+04,        +2.774487196e-07,        +3.604269652e+06
 3.500000000e+00,        +9.433521750e-05,        +1.060049498e+04,        +3.334146788e-05,        +2.999268070e+04,        +2.774814225e-07,        +3.603844867e+06
 3.600000000e+00,        +9.433594598e-05,        +1.060041313e+04,        +3.334053125e-05,        +2.999352327e+04,        +2.775143303e-07,        +3.603417520e+06
 3.700000000e+00,        +9.433649708e-05,        +1.060035120e+04,        +3.333939452e-05,        +2.999454592e+04,        +2.775474506e-07,        +3.602987518e+06
 3.800000000e+00,        +9.433686748e-05,        +1.060030958e+04,        +3.333805322e-05,        +2.999575270e+04,        +2.775807906e-07,        +3.602554766e+06
 3.900000000e+00,        +9.433705396e-05,        +1.060028863e+04,        +3.333650303e-05,        +2.999714755e+04,        +2.776143575e-07,        +3.602119173e+06
 4.000000000e+00,        +9.433705334e-05,        +1.060028869e+04,        +3.333473974e-05,        +2.999873429e+04,        +2.776481583e-07,        +3.601680653e+06
 4.100000000e+00,        +9.433686252e-05,        +1.060031014e+04,        +3.333275925e-05,        +3.000051668e+04,        +2.776821993e-07,        +3.601239124e+06
 4.200000000e+00,        +9.433647844e-05,        +1.060035329e+04,        +3.333055758e-05,        +3.000249839e+04,        +2.777164865e-07,        +3.600794510e+06
 4.300000000e+00,        +9.433589809e-05,        +1.060041851e+04,        +3.332813083e-05,        +3.000468298e+04,        +2.777510256e-07,        +3.600346742e+06
 4.400000000e+00,        +9.433511850e-05,        +1.060050611e+04,        +3.332547524e-05,        +3.000707396e+04,        +2.777858214e-07,        +3.599895757e+06
 4.500000000e+00,        +9.433413675e-05,        +1.060061643e+04,        +3.332258712e-05,        +3.000967471e+04,        +2.778208784e-07,        +3.599441503e+06
 4.600000000e+00,        +9.433294994e-05,        +1.060074980e+04,        +3.331946295e-05,        +3.001248854e+04,        +2.778562002e-07,        +3.598983932e+06
 4.700000000e+00,        +9.433155527e-05,        +1.060090653e+04,        +3.331609929e-05,        +3.001551866e+04,        +2.778917900e-07,        +3.598523008e+06
 4.800000000e+00,        +9.432994996e-05,        +1.060108693e+04,        +3.331249287e-05,        +3.001876815e+04,        +2.779276501e-07,        +3.598058702e+06
 4.900000000e+00,        +9.432813133e-05,        +1.060129132e+04,        +3.330864058e-05,        +3.002223995e+04,        +2.779637822e-07,        +3.597590995e+06
 5.000000000e+00,        +9.432609677e-05,        +1.060151998e+04,        +3.330453946e-05,        +3.002593689e+04,        +2.780001873e-07,        +3.597119879e+06
 5.100000000e+00,        +9.432384378e-05,        +1.060177321e+04,        +3.330018675e-05,        +3.002986162e+04,        +2.780368654e-07,        +3.596645353e+06
 5.200000000e+00,        +9.432136997e-05,        +1.060205127e+04,        +3.329557990e-05,        +3.003401662e+04,        +2.780738162e-07,        +3.596167427e+06
 5.300000000e+00,        +9.431867308e-05,        +1.060235442e+04,        +3.329071660e-05,        +3.003840416e+04,        +2.781110382e-07,        +3.595686121e+06
 5.400000000e+00,        +9.431575098e-05,        +1.060268290e+04,        +3.328559476e-05,        +3.004302633e+04,        +2.781485293e-07,        +3.595201465e+06
 5.500000000e+00,        +9.431260175e-05,        +1.060303694e+04,        +3.328021260e-05,        +3.004788497e+04,        +2.781862867e-07,        +3.594713499e+06
 5.600000000e+00,        +9.430922361e-05,        +1.060341674e+04,        +3.327456862e-05,        +3.005298165e+04,        +2.782243068e-07,        +3.594222272e+06
 5.700000000e+00,        +9.430561502e-05,        +1.060382247e+04,        +3.326866163e-05,        +3.005831768e+04,        +2.782625850e-07,        +3.593727845e+06
 5.800000000e+00,        +9.430177466e-05,        +1.060425431e+04,        +3.326249080e-05,        +3.006389407e+04,        +2.783011163e-07,        +3.593230287e+06
 5.900000000e+00,        +9.429770146e-05,        +1.060471236e+04,        +3.325605568e-05,        +3.006971151e+04,        +2.783398947e-07,        +3.592729678e+06
 6.000000000e+00,        +9.429339461e-05,        +1.060519673e+04,        +3.324935618e-05,        +3.007577032e+04,        +2.783789133e-07,        +3.592226107e+06
 6.100000000e+00,        +9.428885361e-05,        +1.060570748e+04,        +3.324239268e-05,        +3.008207049e+04,        +2.784181648e-07,        +3.591719674e+06
 6.200000000e+00,        +9.428407828e-05,        +1.060624464e+04,        +3.323516597e-05,        +3.008861159e+04,        +2.784576409e-07,        +3.591210486e+06
 6.300000000e+00,        +9.427906875e-05,        +1.060680821e+04,        +3.322767732e-05,        +3.009539278e+04,        +2.784973326e-07,        +3.590698663e+06
 6.400000000e+00,        +9.427382555e-05,        +1.060739812e+04,        +3.321992850e-05,        +3.010241277e+04,        +2.785372303e-07,        +3.590184332e+06
 6.500000000e+00,        +9.426834955e-05,        +1.060801430e+04,        +3.321192180e-05,        +3.010966984e+04,        +2.785773235e-07,        +3.589667628e+06
 6.600000000e+00,        +9.426264205e-05,        +1.060865660e+04,        +3.320366004e-05,        +3.011716175e+04,        +2.786176011e-07,        +3.589148697e+06
 6.700000000e+00,        +9.425670476e-05,        +1.060932485e+04,        +3.319514661e-05,        +3.012488578e+04,        +2.786580514e-07,        +3.588627693e+06
 6.800000000e+00,        +9.425053983e-05,        +1.061001880e+04,        +3.318638548e-05,        +3.013283868e+04,        +2.786986619e-07,        +3.588104777e+06
 6.900000000e+00,        +9.424414988e-05,        +1.061073819e+04,        +3.317738123e-05,        +3.014101665e+04,        +2.787394195e-07,        +3.587580120e+06
 7.000000000e+00,        +9.423753798e-05,        +1.061148266e+04,        +3.316813904e-05,        +3.014941535e+04,        +2.787803106e-07,        +3.587053898e+06
 7.100000000e+00,        +9.423070772e-05,        +1.061225183e+04,        +3.315866472e-05,        +3.015802983e+04,        +2.788213209e-07,        +3.586526299e+06
 7.200000000e+00,        +9.422366315e-05,        +1.061304524e+04,        +3.314896476e-05,        +3.016685459e+04,        +2.788624355e-07,        +3.585997512e+06
 7.300000000e+00,        +9.421640889e-05,        +1.061386240e+04,        +3.313904628e-05,        +3.017588351e+04,        +2.789036391e-07,        +3.585467738e+06
 7.400000000e+00,        +9.420895002e-05,        +1.061470274e+04,        +3.312891705e-05,        +3.018510984e+04,        +2.789449157e-07,        +3.584937181e+06
 7.500000000e+00,        +9.420129221e-05,        +1.061556563e+04,        +3.311858553e-05,        +3.019452624e+04,        +2.789862491e-07,        +3.584406053e+06
 7.600000000e+00,        +9.419344163e-05,        +1.061645039e+04,        +3.310806086e-05,        +3.020412473e+04,        +2.790276224e-07,        +3.583874569e+06
 7.700000000e+00,        +9.418540501e-05,        +1.061735627e+04,        +3.309735284e-05,        +3.021389671e+04,        +2.790690183e-07,        +3.583342952e+06
 7.800000000e+00,        +9.417718960e-05,        +1.061828246e+04,        +3.308647194e-05,        +3.022383293e+04,        +2.791104193e-07,        +3.582811428e+06
 7.900000000e+00,        +9.416880320e-05,        +1.061922809e+04,        +3.307542929e-05,        +3.023392353e+04,        +2.791518075e-07,        +3.582280226e+06
 8.000000000e+00,        +9.416025415e-05,        +1.062019224e+04,        +3.306423668e-05,        +3.024415805e+04,        +2.791931645e-07,        +3.581749581e+06
 8.100000000e+00,        +9.415155130e-05,        +1.062117391e+04,        +3.305290654e-05,        +3.025452539e+04,        +2.792344719e-07,        +3.581219729e+06
 8.200000000e+00,        +9.414270404e-05,        +1.062217205e+04,        +3.304145192e-05,        +3.026501385e+04,        +2.792757109e-07,        +3.580690912e+06
 8.300000000e+00,        +9.413372224e-05,        +1.062318557e+04,        +3.302988649e-05,        +3.027561116e+04,        +2.793168626e-07,        +3.580163370e+06
 8.400000000e+00,        +9.412461626e-05,        +1.062421330e+04,        +3.301822448e-05,        +3.028630448e+04,        +2.793579078e-07,        +3.579637348e+06
 8.500000000e+00,        +9.411539695e-05,        +1.062525402e+04,        +3.300648070e-05,        +3.029708042e+04,        +2.793988273e-07,        +3.579113090e+06
 8.600000000e+00,        +9.410607559e-05,        +1.062630647e+04,        +3.299467047e-05,        +3.030792506e+04,        +2.794396018e-07,        +3.578590843e+06
 8.700000000e+00,        +9.409666387e-05,        +1.062736933e+04,        +3.298280960e-05,        +3.031882402e+04,        +2.794802119e-07,        +3.578070852e+06
 8.800000000e+00,        +9.408717392e-05,        +1.062844125e+04,        +3.297091438e-05,        +3.032976242e+04,        +2.795206383e-07,        +3.577553364e+06
 8.900000000e+00,        +9.407761818e-05,        +1.062952081e+04,        +3.295900151e-05,        +3.034072496e+04,        +2.795608617e-07,        +3.577038624e+06
 9.000000000e+00,        +9.406800948e-05,        +1.063060657e+04,        +3.294708807e-05,        +3.035169596e+04,        +2.796008626e-07,        +3.576526877e+06
 9.100000000e+00,        +9.405836091e-05,        +1.063169707e+04,        +3.293519147e-05,        +3.036265938e+04,        +2.796406220e-07,        +3.576018365e+06
 9.200000000e+00,        +9.404868585e-05,        +1.063279078e+04,        +3.292332941e-05,        +3.037359884e+04,        +2.796801208e-07,        +3.575513330e+06
 9.300000000e+00,        +9.403899789e-05,        +1.063388618e+04,        +3.291151983e-05,        +3.038449774e+04,        +2.797193399e-07,        +3.575012011e+06
 9.400000000e+00,        +9.402931082e-05,        +1.063498170e+04,        +3.289978087e-05,        +3.039533922e+04,        +2.797582608e-07,        +3.574514644e+06
 9.500000000e+00,        +9.401963857e-05,        +1.063607577e+04,        +3.288813081e-05,        +3.040610626e+04,        +2.797968647e-07,        +3.574021464e+06
 9.600000000e+00,        +9.400999517e-05,        +1.063716681e+04,        +3.287658800e-05,        +3.041678170e+04,        +2.798351334e-07,        +3.573532700e+06
 9.700000000e+00,        +9.400039471e-05,        +1.063825320e+04,        +3.286517083e-05,        +3.042734831e+04,        +2.798730488e-07,        +3.573048581e+06
 9.800000000e+00,        +9.399085130e-05,        +1.063933336e+04,        +3.285389767e-05,        +3.043778885e+04,        +2.799105930e-07,        +3.572569331e+06
 9.900000000e+00,        +9.398137902e-05,        +1.064040569e+04,        +3.284278681e-05,        +3.044808608e+04,        +2.799477485e-07,        +3.572095169e+06
 1.000000000e+01,        +9.397199186e-05,        +1.064146859e+04,        +3.283185643e-05,        +3.045822286e+04,        +2.799844979e-07,        +3.571626313e+06
 1.010000000e+01,        +9.396270371e-05,        +1.064252049e+04,        +3.282112448e-05,        +3.046818218e+04,        +2.800208244e-07,        +3.571162974e+06
 1.020000000e+01,        +9.395352829e-05,        +1.064355983e+04,        +3.281060872e-05,        +3.047794720e+04,        +2.800567111e-07,        +3.570705362e+06
 1.030000000e+01,        +9.394447911e-05,        +1.064458507e+04,        +3.280032658e-05,        +3.048750132e+04,        +2.800921418e-07,        +3.570253680e+06
 1.040000000e+01,        +9.393556942e-05,        +1.064559470e+04,        +3.279029518e-05,        +3.049682824e+04,        +2.801271003e-07,        +3.569808130e+06
 1.050000000e+01,        +9.392681221e-05,        +1.064658724e+04,        +3.278053123e-05,        +3.050591197e+04,        +2.801615708e-07,        +3.569368908e+06
 1.060000000e+01,        +9.391822011e-05,        +1.064756124e+04,        +3.277105101e-05,        +3.051473692e+04,        +2.801955380e-07,        +3.568936205e+06
 1.070000000e+01,        +9.390980538e-05,        +1.064851531e+04,        +3.276187032e-05,        +3.052328791e+04,        +2.802289866e-07,        +3.568510210e+06
 1.080000000e+01,        +9.390157992e-05,        +1.064944808e+04,        +3.275300442e-05,        +3.053155024e+04,        +2.802619019e-07,        +3.568091108e+06
 1.090000000e+01,        +9.389355513e-05,        +1.065035825e+04,        +3.274446805e-05,        +3.053950972e+04,        +2.802942693e-07,        +3.567679077e+06
 1.100000000e+01,        +9.388574201e-05,        +1.065124457e+04,        +3.273627530e-05,        +3.054715269e+04,        +2.803260746e-07,        +3.567274295e+06
 1.110000000e+01,        +9.387815102e-05,        +1.065210583e+04,        +3.272843966e-05,        +3.055446610e+04,        +2.803573039e-07,        +3.566876932e+06
 1.120000000e+01,        +9.387079212e-05,        +1.065294089e+04,        +3.272097397e-05,        +3.056143747e+04,        +2.803879436e-07,        +3.566487158e+06
 1.130000000e+01,        +9.386367475e-05,        +1.065374867e+04,        +3.271389036e-05,        +3.056805501e+04,        +2.804179804e-07,        +3.566105135e+06
 1.140000000e+01,        +9.385680777e-05,        +1.065452814e+04,        +3.270720027e-05,        +3.057430754e+04,        +2.804474015e-07,        +3.565731023e+06
 1.150000000e+01,        +9.385019951e-05,        +1.065527836e+04,        +3.270091444e-05,        +3.058018460e+04,        +2.804761942e-07,        +3.565364978e+06
 1.160000000e+01,        +9.384385769e-05,        +1.065599843e+04,        +3.269504283e-05,        +3.058567640e+04,        +2.805043464e-07,        +3.565007148e+06
 1.170000000e+01,        +9.383778949e-05,        +1.065668752e+04,        +3.268959471e-05,        +3.059077388e+04,        +2.805318463e-07,        +3.564657678e+06
 1.180000000e+01,        +9.383200149e-05,        +1.065734487e+04,        +3.268457857e-05,        +3.059546868e+04,        +2.805586825e-07,        +3.564316709e+06
 1.190000000e+01,        +9.382649972e-05,        +1.065796979e+04,        +3.268000218e-05,        +3.059975316e+04,        +2.805848442e-07,        +3.563984373e+06
 1.200000000e+01,        +9.382128966e-05,        +1.065856165e+04,        +3.267587256e-05,        +3.060362040e+04,        +2.806103211e-07,        +3.563660795e+06
 1.210000000e+01,        +9.381637622e-05,        +1.065911987e+04,        +3.267219602e-05,        +3.060706417e+04,        +2.806351035e-07,        +3.563346094e+06
 1.220000000e+01,        +9.381176382e-05,        +1.065964394e+04,        +3.266897814e-05,        +3.061007895e+04,        +2.806591826e-07,        +3.563040378e+06
 1.230000000e+01,        +9.380745638e-05,        +1.066013341e+04,        +3.266622383e-05,        +3.061265989e+04,        +2.806825501e-07,        +3.562743746e+06
 1.240000000e+01,        +9.380345736e-05,        +1.066058787e+04,        +3.266393732e-05,        +3.061480281e+04,        +2.807051989e-07,        +3.562456285e+06
 1.250000000e+01,        +9.379976981e-05,        +1.066100697e+04,        +3.266212222e-05,        +3.061650413e+04,        +2.807271230e-07,        +3.562178066e+06
 1.260000000e+01,        +9.379639640e-05,        +1.066139040e+04,        +3.266078153e-05,        +3.061776091e+04,        +2.807483173e-07,        +3.561909149e+06
 1.270000000e+01,        +9.379333946e-05,        +1.066173788e+04,        +3.265991768e-05,        +3.061857074e+04,        +2.807687785e-07,        +3.561649573e+06
 1.280000000e+01,        +9.379060108e-05,        +1.066204917e+04,        +3.265953260e-05,        +3.061893176e+04,        +2.807885046e-07,        +3.561399358e+06
 1.290000000e+01,        +9.378818311e-05,        +1.066232405e+04,        +3.265962774e-05,        +3.061884257e+04,        +2.808074955e-07,        +3.561158501e+06
 1.300000000e+01,        +9.378608728e-05,        +1.066256232e+04,        +3.266020411e-05,        +3.061830222e+04,        +2.808257532e-07,        +3.560926975e+06
 1.310000000e+01,        +9.378431524e-05,        +1.066276378e+04,        +3.266126239e-05,        +3.061731014e+04,        +2.808432819e-07,        +3.560704722e+06
 1.320000000e+01,        +9.378286862e-05,        +1.066292826e+04,        +3.266280290e-05,        +3.061586610e+04,        +2.808600881e-07,        +3.560491655e+06
 1.330000000e+01,        +9.378174916e-05,        +1.066305554e+04,        +3.266482573e-05,        +3.061397015e+04,        +2.808761814e-07,        +3.560287650e+06
 1.340000000e+01,        +9.378095873e-05,        +1.066314541e+04,        +3.266733077e-05,        +3.061162257e+04,        +2.808915743e-07,        +3.560092546e+06
 1.350000000e+01,        +9.378049942e-05,        +1.066319764e+04,        +3.267031777e-05,        +3.060882380e+04,        +2.809062826e-07,        +3.559906139e+06
 1.360000000e+01,        +9.378037364e-05,        +1.066321194e+04,        +3.267378638e-05,        +3.060557440e+04,        +2.809203256e-07,        +3.559728182e+06
 1.370000000e+01,        +9.378058417e-05,        +1.066318800e+04,        +3.267773622e-05,        +3.060187503e+04,        +2.809337265e-07,        +3.559558379e+06
