       t (ns),                Sum Abs.,           Min Elem Abs.,           Max Elem Abs.,          Mean Elem Abs.,           Normalization
 0.000000e+00,        +0.000000000e+00,        +0.000000000e+00,        +0.000000000e+00,        +0.000000000e+00,        +0.000000000e+00
 3.747406e-02,        +5.656659455e-06,        +4.851768538e-19,        +1.429016907e-06,        +1.884177417e-07,        +1.015013075e-04
 7.494811e-02,        +1.331364706e-05,        +1.252047160e-18,        +3.354073322e-06,        +4.532531473e-07,        +1.286451027e-04
 1.124222e-01,        +4.532668491e-06,        +8.692216473e-19,        +1.143753275e-06,        +1.587978168e-07,        +1.363415075e-04
 1.498962e-01,        +5.315482993e-06,        +5.382843762e-19,        +1.352478574e-06,        +1.844891507e-07,        +2.237425263e-04
 1.873703e-01,        +2.286991326e-05,        +3.007030970e-18,        +5.789494315e-06,        +7.781958288e-07,        +5.988175109e-04
 2.248443e-01,        +1.597419758e-05,        +2.187676401e-18,        +4.067429237e-06,        +5.797052698e-07,        +1.231303285e-03
 2.623184e-01,        +1.145612024e-05,        +5.207848925e-18,        +3.069144677e-06,        +4.523653991e-07,        +2.183486767e-03
 2.997925e-01,        +2.086398938e-05,        +1.270112296e-17,        +5.143395002e-06,        +8.183715069e-07,        +3.443837437e-03
 3.372665e-01,        +3.014646152e-05,        +1.995375749e-17,        +8.564706304e-06,        +1.096508508e-06,        +4.896408733e-03
 3.747406e-01,        +2.951847940e-05,        +5.642253167e-17,        +8.109678263e-06,        +1.146518725e-06,        +6.288158078e-03
 4.122146e-01,        +3.920398129e-05,        +1.409960031e-17,        +1.039662099e-05,        +1.506290838e-06,        +7.236866239e-03
 4.496887e-01,        +5.485446653e-05,        +1.411154384e-16,        +1.373626813e-05,        +2.138216877e-06,        +7.438562524e-03
 4.871627e-01,        +5.305798815e-05,        +1.745355459e-16,        +1.341910982e-05,        +2.244500004e-06,        +7.655638548e-03
 5.246368e-01,        +6.324063047e-05,        +3.538112111e-16,        +1.609936398e-05,        +2.567937221e-06,        +1.144492786e-02
 5.621109e-01,        +9.953861113e-05,        +6.647608180e-16,        +2.871846797e-05,        +3.979070330e-06,        +2.129721915e-02
 5.995849e-01,        +1.560743589e-04,        +6.830393652e-16,        +5.021692981e-05,        +5.826054663e-06,        +3.669178320e-02
 6.370590e-01,        +2.357106590e-04,        +2.975840305e-15,        +7.762490221e-05,        +8.212787663e-06,        +5.641443987e-02
 6.745330e-01,        +3.417912838e-04,        +2.134700483e-15,        +1.077684524e-04,        +1.198621562e-05,        +7.828637698e-02
 7.120071e-01,        +4.480155462e-04,        +8.427337322e-15,        +1.327195791e-04,        +1.653183123e-05,        +9.885177909e-02
 7.494811e-01,        +5.361316672e-04,        +2.209015576e-14,        +1.452888272e-04,        +2.046928227e-05,        +1.137531996e-01
 7.869552e-01,        +5.828228357e-04,        +3.698456781e-14,        +1.419796915e-04,        +2.316840106e-05,        +1.195346821e-01
 8.244293e-01,        +5.919511494e-04,        +1.543555294e-13,        +1.546158786e-04,        +2.529399186e-05,        +1.188340974e-01
 8.619033e-01,        +6.248414803e-04,        +8.440272402e-13,        +1.440128726e-04,        +2.829825492e-05,        +1.309553939e-01
 8.993774e-01,        +8.151146601e-04,        +3.542755319e-12,        +2.051054800e-04,        +3.659201856e-05,        +1.857760966e-01
 9.368514e-01,        +1.238030606e-03,        +1.235495048e-11,        +3.772512882e-04,        +5.099828694e-05,        +2.867307084e-01
 9.743255e-01,        +1.814098313e-03,        +3.886184200e-11,        +5.700103263e-04,        +7.220437046e-05,        +4.167673658e-01
 1.011800e+00,        +2.437431108e-03,        +1.126769718e-10,        +7.477328123e-04,        +9.448610408e-05,        +5.549049357e-01
 1.049274e+00,        +2.992538657e-03,        +2.963780279e-10,        +8.658103032e-04,        +1.186157963e-04,        +6.782106751e-01
 1.086748e+00,        +3.372602378e-03,        +6.883561366e-10,        +8.810228475e-04,        +1.408439505e-04,        +7.648957645e-01
 1.124222e+00,        +3.518151571e-03,        +1.364041638e-09,        +8.457004167e-04,        +1.549572659e-04,        +8.022489576e-01
 1.161696e+00,        +3.491978301e-03,        +2.150204961e-09,        +8.789616842e-04,        +1.613984718e-04,        +8.009704160e-01
 1.199170e+00,        +3.564279227e-03,        +2.123409813e-09,        +8.112931293e-04,        +1.690581924e-04,        +8.143229074e-01
 1.236644e+00,        +4.138418533e-03,        +3.078381559e-09,        +8.645553516e-04,        +2.078914509e-04,        +9.294380600e-01
 1.274118e+00,        +5.324827324e-03,        +1.777478124e-08,        +1.353962850e-03,        +2.601140741e-04,        +1.185764957e+00
 1.311592e+00,        +6.847371239e-03,        +5.481861739e-08,        +1.923072314e-03,        +3.232891049e-04,        +1.534641584e+00
 1.349066e+00,        +8.347554914e-03,        +1.274777982e-07,        +2.347347422e-03,        +3.889148264e-04,        +1.896337013e+00
 1.386540e+00,        +9.532772096e-03,        +2.428165880e-07,        +2.527956003e-03,        +4.514092009e-04,        +2.199936335e+00
 1.424014e+00,        +1.024824707e-02,        +3.871187955e-07,        +2.406072494e-03,        +5.056030501e-04,        +2.397678575e+00
 1.461488e+00,        +1.052203775e-02,        +5.171912012e-07,        +2.444667124e-03,        +5.393185100e-04,        +2.477217296e+00
 1.498962e+00,        +1.058885937e-02,        +5.891194816e-07,        +2.462910797e-03,        +5.619245208e-04,        +2.474013830e+00
 1.536436e+00,        +1.082620294e-02,        +6.896210906e-07,        +2.333885666e-03,        +5.875077909e-04,        +2.473624477e+00
 1.573910e+00,        +1.155161469e-02,        +1.121475533e-06,        +2.437891160e-03,        +6.540312672e-04,        +2.579178548e+00
 1.611384e+00,        +1.278137618e-02,        +1.972066894e-06,        +2.356865899e-03,        +7.374026260e-04,        +2.837660610e+00
 1.648859e+00,        +1.424150692e-02,        +3.100040281e-06,        +3.050855223e-03,        +8.229301974e-04,        +3.200525096e+00
 1.686333e+00,        +1.559703945e-02,        +4.364327287e-06,        +3.447606735e-03,        +9.114278074e-04,        +3.569942692e+00
 1.723807e+00,        +1.662444071e-02,        +5.652063847e-06,        +3.476585555e-03,        +9.873524406e-04,        +3.860927182e+00
 1.761281e+00,        +1.725792281e-02,        +6.835154067e-06,        +3.269676383e-03,        +1.054802446e-03,        +4.031057848e+00
 1.798755e+00,        +1.756888105e-02,        +7.822221900e-06,        +3.490071839e-03,        +1.100407720e-03,        +4.086189106e+00
 1.836229e+00,        +1.771435393e-02,        +9.224119034e-06,        +3.393376631e-03,        +1.130683221e-03,        +4.072082288e+00
 1.873703e+00,        +1.785832386e-02,        +1.320969740e-05,        +3.372883096e-03,        +1.161958398e-03,        +4.053069427e+00
 1.911177e+00,        +1.810395343e-02,        +2.146664968e-05,        +3.399366408e-03,        +1.205675107e-03,        +4.080890391e+00
 1.948651e+00,        +1.846382530e-02,        +3.336302682e-05,        +3.215132108e-03,        +1.261773627e-03,        +4.169120342e+00
 1.986125e+00,        +1.888457853e-02,        +4.698430886e-05,        +3.375389794e-03,        +1.311524450e-03,        +4.292682833e+00
 2.023599e+00,        +1.928557725e-02,        +5.951672357e-05,        +3.230487064e-03,        +1.366405838e-03,        +4.410898850e+00
 2.061073e+00,        +1.959303920e-02,        +6.715821177e-05,        +3.292283170e-03,        +1.413551116e-03,        +4.492460625e+00
 2.098547e+00,        +1.977023401e-02,        +6.599675127e-05,        +3.280926715e-03,        +1.448890774e-03,        +4.527157525e+00
 2.136021e+00,        +1.982606615e-02,        +5.672179952e-05,        +3.153403886e-03,        +1.477660705e-03,        +4.524046965e+00
 2.173495e+00,        +1.979526345e-02,        +6.082263690e-05,        +3.273005166e-03,        +1.489008848e-03,        +4.501957938e+00
 2.210969e+00,        +1.971930948e-02,        +1.081631263e-04,        +3.096774883e-03,        +1.499471252e-03,        +4.478434139e+00
 2.248443e+00,        +1.963950279e-02,        +1.861344323e-04,        +3.208102115e-03,        +1.504260282e-03,        +4.462008482e+00
 2.285917e+00,        +1.957424152e-02,        +2.755866023e-04,        +3.160538427e-03,        +1.513687739e-03,        +4.450486620e+00
 2.323392e+00,        +1.950573403e-02,        +3.564622283e-04,        +3.087873225e-03,        +1.519283140e-03,        +4.434865564e+00
 2.360866e+00,        +1.940581024e-02,        +4.054684373e-04,        +3.168292697e-03,        +1.515796398e-03,        +4.406388329e+00
 2.398340e+00,        +1.926434723e-02,        +3.996770705e-04,        +2.962622826e-03,        +1.506568723e-03,        +4.363973589e+00
 2.435814e+00,        +1.909655442e-02,        +3.214407182e-04,        +3.118749615e-03,        +1.482647495e-03,        +4.319369685e+00
 2.473288e+00,        +1.895811647e-02,        +1.839689235e-04,        +3.036885498e-03,        +1.468540491e-03,        +4.296269972e+00
 2.510762e+00,        +1.894439512e-02,        +2.204911120e-04,        +3.027284537e-03,        +1.470201519e-03,        +4.319012990e+00
 2.548236e+00,        +1.911859202e-02,        +1.813557604e-04,        +3.079371068e-03,        +1.490279423e-03,        +4.391832454e+00
 2.585710e+00,        +1.942027452e-02,        +8.465426247e-05,        +2.915624197e-03,        +1.509126434e-03,        +4.481474420e+00
 2.623184e+00,        +1.963519733e-02,        +9.976338258e-05,        +3.093706609e-03,        +1.511211369e-03,        +4.519833729e+00
 2.660658e+00,        +1.945513343e-02,        +1.192767917e-04,        +2.987367916e-03,        +1.485119786e-03,        +4.429683004e+00
 2.698132e+00,        +1.861878549e-02,        +1.067715430e-04,        +2.884183524e-03,        +1.407976497e-03,        +4.164305386e+00
 2.735606e+00,        +1.710066160e-02,        +1.313040409e-04,        +2.786532587e-03,        +1.279638252e-03,        +3.755743891e+00
 2.773080e+00,        +1.538534017e-02,        +9.475720213e-05,        +2.394757280e-03,        +1.120242820e-03,        +3.369620795e+00
 2.810554e+00,        +1.459970790e-02,        +7.277303229e-05,        +2.426897616e-03,        +1.022789237e-03,        +3.300078313e+00
 2.848028e+00,        +1.577492744e-02,        +4.329855808e-05,        +2.648390438e-03,        +1.105397512e-03,        +3.715663123e+00
 2.885502e+00,        +1.851283738e-02,        +2.006000941e-05,        +3.351903461e-03,        +1.249233074e-03,        +4.412696644e+00
 2.922976e+00,        +2.132059162e-02,        +7.437820796e-06,        +4.013069564e-03,        +1.384748240e-03,        +5.035062025e+00
 2.960451e+00,        +2.279077487e-02,        +9.538190125e-06,        +4.535289462e-03,        +1.438249671e-03,        +5.296751662e+00
 2.997925e+00,        +2.198649980e-02,        +1.213423224e-05,        +4.486425727e-03,        +1.365182572e-03,        +5.025294040e+00
 3.035399e+00,        +1.853237043e-02,        +1.062292095e-05,        +3.820619063e-03,        +1.141992427e-03,        +4.165707984e+00
 3.072873e+00,        +1.265418979e-02,        +8.153948486e-06,        +2.598816283e-03,        +7.812765378e-04,        +2.782735535e+00
 3.110347e+00,        +5.265495931e-03,        +4.582142878e-06,        +9.839733384e-04,        +3.411259218e-04,        +1.091908737e+00
 3.147821e+00,        +4.574928367e-03,        +1.680469188e-06,        +8.666484916e-04,        +2.912393939e-04,        +1.087897791e+00
 3.185295e+00,        +1.208246023e-02,        +2.263397939e-06,        +2.520770130e-03,        +7.276559379e-04,        +2.795340363e+00
 3.222769e+00,        +1.828571121e-02,        +3.423453186e-06,        +3.853354933e-03,        +1.093030170e-03,        +4.198205341e+00
 3.260243e+00,        +2.198386792e-02,        +3.709070615e-06,        +4.637021302e-03,        +1.312583527e-03,        +5.054782764e+00
 3.297717e+00,        +2.274113830e-02,        +5.430777524e-06,        +4.770573156e-03,        +1.364056751e-03,        +5.270954600e+00
 3.335191e+00,        +2.075239208e-02,        +1.087448501e-05,        +4.269770291e-03,        +1.264037484e-03,        +4.875664359e+00
 3.372665e+00,        +1.683366259e-02,        +1.945262936e-05,        +3.253540776e-03,        +1.058387811e-03,        +4.026124476e+00
 3.410139e+00,        +1.257529174e-02,        +3.016371246e-05,        +2.336277033e-03,        +8.425637502e-04,        +3.029466121e+00
 3.447613e+00,        +1.051023882e-02,        +3.687698139e-05,        +1.857166545e-03,        +7.127467496e-04,        +2.402804105e+00
 3.485087e+00,        +1.197457373e-02,        +5.129570561e-05,        +1.975832266e-03,        +8.549372312e-04,        +2.582857071e+00
 3.522561e+00,        +1.475674376e-02,        +4.252621015e-05,        +2.416287574e-03,        +1.061933682e-03,        +3.207230086e+00
 3.560035e+00,        +1.685326549e-02,        +4.330328377e-05,        +2.636066290e-03,        +1.211007114e-03,        +3.758897835e+00
 3.597509e+00,        +1.767867104e-02,        +3.794721935e-05,        +2.813350409e-03,        +1.280542243e-03,        +4.038904116e+00
 3.634984e+00,        +1.739033047e-02,        +2.593251981e-05,        +2.668158619e-03,        +1.277447128e-03,        +4.041099495e+00
 3.672458e+00,        +1.649636267e-02,        +6.441647584e-05,        +2.489142507e-03,        +1.239911039e-03,        +3.857051923e+00
 3.709932e+00,        +1.558915378e-02,        +1.317476718e-04,        +2.508135890e-03,        +1.183332706e-03,        +3.618537515e+00
 3.747406e+00,        +1.506771922e-02,        +1.827996373e-04,        +2.464165400e-03,        +1.139564839e-03,        +3.441274021e+00
 3.784880e+00,        +1.497043510e-02,        +2.583602594e-04,        +2.398976769e-03,        +1.138677928e-03,        +3.374125919e+00
 3.822354e+00,        +1.509382884e-02,        +2.639451574e-04,        +2.467045163e-03,        +1.167383022e-03,        +3.390782747e+00
 3.859828e+00,        +1.522187392e-02,        +3.441247598e-04,        +2.310794739e-03,        +1.195800440e-03,        +3.433261195e+00
 3.897302e+00,        +1.524725623e-02,        +2.580789787e-04,        +2.433286221e-03,        +1.202259383e-03,        +3.458316390e+00
 3.934776e+00,        +1.516738767e-02,        +3.251563904e-04,        +2.371467061e-03,        +1.197977832e-03,        +3.452477391e+00
 3.972250e+00,        +1.503328590e-02,        +2.641111457e-04,        +2.352762597e-03,        +1.181160532e-03,        +3.423913070e+00
 4.009724e+00,        +1.489865194e-02,        +1.880624459e-04,        +2.387811628e-03,        +1.164102973e-03,        +3.388071423e+00
 4.047198e+00,        +1.478547828e-02,        +8.550478354e-05,        +2.233912073e-03,        +1.149898734e-03,        +3.356481759e+00
 4.084672e+00,        +1.468099176e-02,        +7.081310759e-05,        +2.362301588e-03,        +1.134568267e-03,        +3.331811122e+00
 4.122146e+00,        +1.456012095e-02,        +1.000589609e-04,        +2.276136299e-03,        +1.120143566e-03,        +3.308561286e+00
 4.159620e+00,        +1.440061914e-02,        +1.123758522e-04,        +2.295370230e-03,        +1.096086058e-03,        +3.277077389e+00
 4.197094e+00,        +1.417920979e-02,        +1.041989270e-04,        +2.302534672e-03,        +1.066757394e-03,        +3.228672040e+00
 4.234568e+00,        +1.389532622e-02,        +8.128856513e-05,        +2.187418699e-03,        +1.029125720e-03,        +3.160462176e+00
 4.272043e+00,        +1.358279022e-02,        +5.561281064e-05,        +2.284829119e-03,        +9.884369661e-04,        +3.078621207e+00
 4.309517e+00,        +1.328300870e-02,        +3.240403157e-05,        +2.174652578e-03,        +9.511227346e-04,        +2.998083103e+00
 4.346991e+00,        +1.303013392e-02,        +1.734442280e-05,        +2.230526466e-03,        +9.130664661e-04,        +2.936632045e+00
 4.384465e+00,        +1.284238151e-02,        +1.317936068e-05,        +2.214435654e-03,        +8.833845738e-04,        +2.903960890e+00
 4.421939e+00,        +1.269274612e-02,        +1.435346878e-05,        +2.169259921e-03,        +8.602679546e-04,        +2.891846173e+00
 4.459413e+00,        +1.250769470e-02,        +1.383626335e-05,        +2.240466421e-03,        +8.338864541e-04,        +2.873914205e+00
 4.496887e+00,        +1.220347711e-02,        +1.135949579e-05,        +2.105010524e-03,        +7.956943879e-04,        +2.816758998e+00
 4.534361e+00,        +1.171453920e-02,        +8.193555952e-06,        +2.144672476e-03,        +7.462399314e-04,        +2.695681837e+00
 4.571835e+00,        +1.102237397e-02,        +4.675370098e-06,        +2.130475113e-03,        +6.893655959e-04,        +2.507645693e+00
 4.609309e+00,        +1.018197664e-02,        +2.900858519e-06,        +1.900309735e-03,        +6.269664928e-04,        +2.277803991e+00
 4.646783e+00,        +9.322403390e-03,        +1.537370332e-06,        +1.690064076e-03,        +5.675653591e-04,        +2.056633148e+00
 4.684257e+00,        +8.612482540e-03,        +2.177024166e-06,        +1.777449120e-03,        +5.126679272e-04,        +1.900910688e+00
 4.721731e+00,        +8.172956269e-03,        +1.597348476e-07,        +1.698925799e-03,        +4.697649227e-04,        +1.836469626e+00
 4.759205e+00,        +7.974254164e-03,        +1.376759447e-06,        +1.775601935e-03,        +4.478961087e-04,        +1.832767372e+00
 4.796679e+00,        +7.844595933e-03,        +1.486059100e-06,        +1.758174419e-03,        +4.293124594e-04,        +1.825304967e+00
 4.834153e+00,        +7.577377359e-03,        +9.019852725e-07,        +1.674581099e-03,        +4.004209283e-04,        +1.758563482e+00
 4.871627e+00,        +7.029320252e-03,        +9.009408167e-07,        +1.762912950e-03,        +3.576671923e-04,        +1.608482314e+00
 4.909101e+00,        +6.179568725e-03,        +2.593617651e-07,        +1.642024118e-03,        +3.075982349e-04,        +1.384441804e+00
 4.946576e+00,        +5.135873059e-03,        +1.084927890e-06,        +1.344862366e-03,        +2.560184412e-04,        +1.123464235e+00
 4.984050e+00,        +4.102281426e-03,        +6.009974120e-07,        +9.379570169e-04,        +2.098103295e-04,        +8.825893277e-01
 5.021524e+00,        +3.333768130e-03,        +6.069854336e-07,        +7.160525289e-04,        +1.710763679e-04,        +7.236586428e-01
 5.058998e+00,        +2.997347813e-03,        +6.062333039e-07,        +7.063083875e-04,        +1.480832886e-04,        +6.701071985e-01
 5.096472e+00,        +2.966082582e-03,        +6.251374827e-08,        +7.358345835e-04,        +1.447742713e-04,        +6.737184634e-01
 5.133946e+00,        +2.951114323e-03,        +7.366551806e-07,        +6.861277482e-04,        +1.388125984e-04,        +6.688498009e-01
 5.171420e+00,        +2.775008111e-03,        +5.174370339e-07,        +7.341489445e-04,        +1.241847277e-04,        +6.231396120e-01
 5.208894e+00,        +2.405717198e-03,        +9.223463232e-07,        +6.960389026e-04,        +1.031301521e-04,        +5.351006016e-01
 5.246368e+00,        +1.901056861e-03,        +1.335454083e-06,        +5.740866334e-04,        +8.197917225e-05,        +4.200215275e-01
 5.283842e+00,        +1.365329913e-03,        +2.044962887e-06,        +4.072460566e-04,        +6.179777067e-05,        +3.000669782e-01
